time,channel1,channel2,channel3,channel4,channel5,channel6,channel7,channel8,class,label
1783,0.0,-4e-05,-9e-05,-7e-05,-2e-05,-2e-05,-1e-05,-1e-05,1,1.0
1784,0.0,-4e-05,-9e-05,-7e-05,-2e-05,-2e-05,-1e-05,-1e-05,1,1.0
1785,0.0,-4e-05,-9e-05,-7e-05,-2e-05,-2e-05,-1e-05,-1e-05,1,1.0
1787,1e-05,-6e-05,-6e-05,-6e-05,-3e-05,-1e-05,-1e-05,1e-05,1,1.0
1790,1e-05,-6e-05,-6e-05,-6e-05,-3e-05,-1e-05,-1e-05,1e-05,1,1.0
1791,1e-05,-6e-05,-6e-05,-6e-05,-3e-05,-1e-05,-1e-05,1e-05,1,1.0
1792,1e-05,-6e-05,-6e-05,-6e-05,-3e-05,-1e-05,-1e-05,1e-05,1,1.0
1793,1e-05,-6e-05,-6e-05,-6e-05,-3e-05,-1e-05,-1e-05,1e-05,1,1.0
1794,1e-05,-6e-05,-6e-05,-6e-05,-3e-05,-1e-05,-1e-05,1e-05,1,1.0
1795,1e-05,-6e-05,-6e-05,-6e-05,-3e-05,-1e-05,-1e-05,1e-05,1,1.0
1796,1e-05,-6e-05,-6e-05,-6e-05,-3e-05,-1e-05,-1e-05,1e-05,1,1.0
1797,1e-05,-6e-05,-6e-05,-6e-05,-3e-05,-1e-05,-1e-05,1e-05,1,1.0
1798,1e-05,-6e-05,-6e-05,-6e-05,-3e-05,-1e-05,-1e-05,1e-05,1,1.0
1799,1e-05,-6e-05,-6e-05,-6e-05,-3e-05,-1e-05,-1e-05,1e-05,1,1.0
1800,1e-05,-6e-05,-6e-05,-6e-05,-3e-05,-1e-05,-1e-05,1e-05,1,1.0
1801,-1e-05,3e-05,3e-05,4e-05,0.0,1e-05,1e-05,2e-05,1,1.0
1802,-1e-05,3e-05,3e-05,4e-05,0.0,1e-05,1e-05,2e-05,1,1.0
1803,-1e-05,3e-05,3e-05,4e-05,0.0,1e-05,1e-05,2e-05,1,1.0
1804,-1e-05,3e-05,3e-05,4e-05,0.0,1e-05,1e-05,2e-05,1,1.0
1805,-1e-05,3e-05,3e-05,4e-05,0.0,1e-05,1e-05,2e-05,1,1.0
1806,-1e-05,3e-05,3e-05,4e-05,0.0,1e-05,1e-05,2e-05,1,1.0
1807,-1e-05,3e-05,3e-05,4e-05,0.0,1e-05,1e-05,2e-05,1,1.0
1808,-1e-05,3e-05,3e-05,4e-05,0.0,1e-05,1e-05,2e-05,1,1.0
1809,-1e-05,3e-05,3e-05,4e-05,0.0,1e-05,1e-05,2e-05,1,1.0
1810,-1e-05,3e-05,3e-05,4e-05,0.0,1e-05,1e-05,2e-05,1,1.0
1811,1e-05,-1e-05,7e-05,2e-05,-4e-05,-1e-05,-2e-05,-1e-05,1,1.0
1812,1e-05,-1e-05,7e-05,2e-05,-4e-05,-1e-05,-2e-05,-1e-05,1,1.0
1813,1e-05,-1e-05,7e-05,2e-05,-4e-05,-1e-05,-2e-05,-1e-05,1,1.0
1814,1e-05,-1e-05,7e-05,2e-05,-4e-05,-1e-05,-2e-05,-1e-05,1,1.0
1815,1e-05,-1e-05,7e-05,2e-05,-4e-05,-1e-05,-2e-05,-1e-05,1,1.0
1816,1e-05,-1e-05,7e-05,2e-05,-4e-05,-1e-05,-2e-05,-1e-05,1,1.0
1817,1e-05,-1e-05,7e-05,2e-05,-4e-05,-1e-05,-2e-05,-1e-05,1,1.0
1818,1e-05,-1e-05,7e-05,2e-05,-4e-05,-1e-05,-2e-05,-1e-05,1,1.0
1819,1e-05,-1e-05,7e-05,2e-05,-4e-05,-1e-05,-2e-05,-1e-05,1,1.0
1821,1e-05,-1e-05,7e-05,2e-05,-4e-05,-1e-05,-2e-05,-1e-05,1,1.0
1822,1e-05,-1e-05,7e-05,2e-05,-4e-05,-1e-05,-2e-05,-1e-05,1,1.0
1823,1e-05,-1e-05,7e-05,2e-05,-4e-05,-1e-05,-2e-05,-1e-05,1,1.0
1824,1e-05,-1e-05,7e-05,2e-05,-4e-05,-1e-05,-2e-05,-1e-05,1,1.0
1825,1e-05,-1e-05,7e-05,2e-05,-4e-05,-1e-05,-2e-05,-1e-05,1,1.0
1826,1e-05,-1e-05,7e-05,2e-05,-4e-05,-1e-05,-2e-05,-1e-05,1,1.0
1827,1e-05,-1e-05,7e-05,2e-05,-4e-05,-1e-05,-2e-05,-1e-05,1,1.0
1828,1e-05,-1e-05,7e-05,2e-05,-4e-05,-1e-05,-2e-05,-1e-05,1,1.0
1829,1e-05,-1e-05,7e-05,2e-05,-4e-05,-1e-05,-2e-05,-1e-05,1,1.0
1830,1e-05,-1e-05,7e-05,2e-05,-4e-05,-1e-05,-2e-05,-1e-05,1,1.0
1831,1e-05,-1e-05,7e-05,2e-05,-4e-05,-1e-05,-2e-05,-1e-05,1,1.0
1832,1e-05,2e-05,0.00021,2e-05,0.0,0.0,-2e-05,-2e-05,1,1.0
1833,-2e-05,0.0,-0.00018,-1e-05,0.0,-1e-05,-2e-05,0.0,1,1.0
1834,-1e-05,0.0,-2e-05,-2e-05,0.0,-2e-05,-1e-05,-1e-05,1,1.0
1835,-1e-05,0.0,-2e-05,-2e-05,0.0,-2e-05,-1e-05,-1e-05,1,1.0
1836,-1e-05,0.0,-2e-05,-2e-05,0.0,-2e-05,-1e-05,-1e-05,1,1.0
1838,-1e-05,0.0,-2e-05,-2e-05,0.0,-2e-05,-1e-05,-1e-05,1,1.0
1839,-1e-05,0.0,-2e-05,-2e-05,0.0,-2e-05,-1e-05,-1e-05,1,1.0
1840,-1e-05,0.0,-2e-05,-2e-05,0.0,-2e-05,-1e-05,-1e-05,1,1.0
1841,-1e-05,0.0,-2e-05,-2e-05,0.0,-2e-05,-1e-05,-1e-05,1,1.0
1842,-1e-05,0.0,-2e-05,-2e-05,0.0,-2e-05,-1e-05,-1e-05,1,1.0
1843,-1e-05,0.0,-2e-05,-2e-05,0.0,-2e-05,-1e-05,-1e-05,1,1.0
1844,-1e-05,0.0,-2e-05,-2e-05,0.0,-2e-05,-1e-05,-1e-05,1,1.0
1845,-1e-05,0.0,-2e-05,-2e-05,0.0,-2e-05,-1e-05,-1e-05,1,1.0
1846,-1e-05,-7e-05,-0.00024,-7e-05,-3e-05,0.0,-3e-05,-2e-05,1,1.0
1847,-1e-05,-7e-05,-0.00024,-7e-05,-3e-05,0.0,-3e-05,-2e-05,1,1.0
1848,-1e-05,-7e-05,-0.00024,-7e-05,-3e-05,0.0,-3e-05,-2e-05,1,1.0
1849,-1e-05,-7e-05,-0.00024,-7e-05,-3e-05,0.0,-3e-05,-2e-05,1,1.0
1851,-1e-05,-7e-05,-0.00024,-7e-05,-3e-05,0.0,-3e-05,-2e-05,1,1.0
1852,-1e-05,-7e-05,-0.00024,-7e-05,-3e-05,0.0,-3e-05,-2e-05,1,1.0
1853,-1e-05,-7e-05,-0.00024,-7e-05,-3e-05,0.0,-3e-05,-2e-05,1,1.0
1854,-1e-05,-7e-05,-0.00024,-7e-05,-3e-05,0.0,-3e-05,-2e-05,1,1.0
1855,1e-05,3e-05,0.00016,4e-05,1e-05,-2e-05,-1e-05,1e-05,1,1.0
1856,1e-05,3e-05,0.00016,4e-05,1e-05,-2e-05,-1e-05,1e-05,1,1.0
1857,1e-05,3e-05,0.00016,4e-05,1e-05,-2e-05,-1e-05,1e-05,1,1.0
1858,1e-05,3e-05,0.00016,4e-05,1e-05,-2e-05,-1e-05,1e-05,1,1.0
1859,1e-05,3e-05,0.00016,4e-05,1e-05,-2e-05,-1e-05,1e-05,1,1.0
1860,1e-05,3e-05,0.00016,4e-05,1e-05,-2e-05,-1e-05,1e-05,1,1.0
1861,1e-05,3e-05,0.00016,4e-05,1e-05,-2e-05,-1e-05,1e-05,1,1.0
1862,1e-05,3e-05,0.00016,4e-05,1e-05,-2e-05,-1e-05,1e-05,1,1.0
1863,1e-05,3e-05,0.00016,4e-05,1e-05,-2e-05,-1e-05,1e-05,1,1.0
1864,1e-05,3e-05,0.00016,4e-05,1e-05,-2e-05,-1e-05,1e-05,1,1.0
1865,1e-05,3e-05,0.00016,4e-05,1e-05,-2e-05,-1e-05,1e-05,1,1.0
1866,1e-05,3e-05,0.00016,4e-05,1e-05,-2e-05,-1e-05,1e-05,1,1.0
1867,1e-05,3e-05,0.00016,4e-05,1e-05,-2e-05,-1e-05,1e-05,1,1.0
1868,1e-05,3e-05,0.00016,4e-05,1e-05,-2e-05,-1e-05,1e-05,1,1.0
1869,0.0,3e-05,0.0,0.0,1e-05,-2e-05,-1e-05,0.0,1,1.0
1870,-2e-05,-2e-05,3e-05,5e-05,0.0,2e-05,-1e-05,0.0,1,1.0
1871,-2e-05,4e-05,0.00018,2e-05,0.0,-1e-05,0.0,-3e-05,1,1.0
1872,-2e-05,4e-05,0.00018,2e-05,0.0,-1e-05,0.0,-3e-05,1,1.0
1873,-2e-05,4e-05,0.00018,2e-05,0.0,-1e-05,0.0,-3e-05,1,1.0
1874,-2e-05,4e-05,0.00018,2e-05,0.0,-1e-05,0.0,-3e-05,1,1.0
1875,-2e-05,4e-05,0.00018,2e-05,0.0,-1e-05,0.0,-3e-05,1,1.0
1876,-2e-05,4e-05,0.00018,2e-05,0.0,-1e-05,0.0,-3e-05,1,1.0
1877,-2e-05,4e-05,0.00018,2e-05,0.0,-1e-05,0.0,-3e-05,1,1.0
1878,-2e-05,4e-05,0.00018,2e-05,0.0,-1e-05,0.0,-3e-05,1,1.0
1879,-2e-05,4e-05,0.00018,2e-05,0.0,-1e-05,0.0,-3e-05,1,1.0
1880,-2e-05,4e-05,0.00018,2e-05,0.0,-1e-05,0.0,-3e-05,1,1.0
1881,-2e-05,4e-05,0.00018,2e-05,0.0,-1e-05,0.0,-3e-05,1,1.0
1882,-2e-05,4e-05,0.00018,2e-05,0.0,-1e-05,0.0,-3e-05,1,1.0
1883,-2e-05,4e-05,0.00018,2e-05,0.0,-1e-05,0.0,-3e-05,1,1.0
1884,-2e-05,4e-05,0.00018,2e-05,0.0,-1e-05,0.0,-3e-05,1,1.0
1885,-2e-05,4e-05,0.00018,2e-05,0.0,-1e-05,0.0,-3e-05,1,1.0
1886,-2e-05,4e-05,0.00018,2e-05,0.0,-1e-05,0.0,-3e-05,1,1.0
1888,-2e-05,4e-05,0.00018,2e-05,0.0,-1e-05,0.0,-3e-05,1,1.0
1889,-2e-05,4e-05,0.00018,2e-05,0.0,-1e-05,0.0,-3e-05,1,1.0
1890,-2e-05,4e-05,0.00018,2e-05,0.0,-1e-05,0.0,-3e-05,1,1.0
1891,-2e-05,4e-05,0.00018,2e-05,0.0,-1e-05,0.0,-3e-05,1,1.0
1892,-1e-05,3e-05,0.00017,4e-05,-1e-05,-2e-05,1e-05,1e-05,1,1.0
1893,-1e-05,3e-05,0.00017,4e-05,-1e-05,-2e-05,1e-05,1e-05,1,1.0
1894,-1e-05,3e-05,0.00017,4e-05,-1e-05,-2e-05,1e-05,1e-05,1,1.0
1895,0.0,-6e-05,-0.00022,-7e-05,-4e-05,-3e-05,-3e-05,-2e-05,1,1.0
1896,0.0,-6e-05,-0.00022,-7e-05,-4e-05,-3e-05,-3e-05,-2e-05,1,1.0
1897,0.0,-6e-05,-0.00022,-7e-05,-4e-05,-3e-05,-3e-05,-2e-05,1,1.0
1898,0.0,-6e-05,-0.00022,-7e-05,-4e-05,-3e-05,-3e-05,-2e-05,1,1.0
1899,0.0,-6e-05,-0.00022,-7e-05,-4e-05,-3e-05,-3e-05,-2e-05,1,1.0
1900,0.0,-6e-05,-0.00022,-7e-05,-4e-05,-3e-05,-3e-05,-2e-05,1,1.0
1901,0.0,-6e-05,-0.00022,-7e-05,-4e-05,-3e-05,-3e-05,-2e-05,1,1.0
1902,0.0,-6e-05,-0.00022,-7e-05,-4e-05,-3e-05,-3e-05,-2e-05,1,1.0
1903,0.0,-6e-05,-0.00022,-7e-05,-4e-05,-3e-05,-3e-05,-2e-05,1,1.0
1904,0.0,-6e-05,-0.00022,-7e-05,-4e-05,-3e-05,-3e-05,-2e-05,1,1.0
1905,-5e-05,-1e-05,-5e-05,-9e-05,-4e-05,-3e-05,-3e-05,-4e-05,1,1.0
1906,0.0,1e-05,-2e-05,1e-05,-1e-05,-1e-05,-2e-05,-3e-05,1,1.0
1907,0.0,1e-05,-2e-05,1e-05,-1e-05,-1e-05,-2e-05,-3e-05,1,1.0
1908,0.0,1e-05,-2e-05,1e-05,-1e-05,-1e-05,-2e-05,-3e-05,1,1.0
1909,0.0,1e-05,-2e-05,1e-05,-1e-05,-1e-05,-2e-05,-3e-05,1,1.0
1910,0.0,1e-05,-2e-05,1e-05,-1e-05,-1e-05,-2e-05,-3e-05,1,1.0
1911,0.0,1e-05,-2e-05,1e-05,-1e-05,-1e-05,-2e-05,-3e-05,1,1.0
1912,0.0,1e-05,-2e-05,1e-05,-1e-05,-1e-05,-2e-05,-3e-05,1,1.0
1913,0.0,1e-05,-2e-05,1e-05,-1e-05,-1e-05,-2e-05,-3e-05,1,1.0
1914,1e-05,4e-05,0.00022,8e-05,0.0,0.0,1e-05,1e-05,1,1.0
1915,0.0,-1e-05,-9e-05,-2e-05,-1e-05,0.0,-1e-05,-1e-05,1,1.0
1916,0.0,-1e-05,-9e-05,-2e-05,-1e-05,0.0,-1e-05,-1e-05,1,1.0
1917,0.0,-1e-05,-9e-05,-2e-05,-1e-05,0.0,-1e-05,-1e-05,1,1.0
1918,0.0,-1e-05,-9e-05,-2e-05,-1e-05,0.0,-1e-05,-1e-05,1,1.0
1919,0.0,-1e-05,-9e-05,-2e-05,-1e-05,0.0,-1e-05,-1e-05,1,1.0
1920,0.0,-1e-05,-9e-05,-2e-05,-1e-05,0.0,-1e-05,-1e-05,1,1.0
1921,0.0,-1e-05,-9e-05,-2e-05,-1e-05,0.0,-1e-05,-1e-05,1,1.0
1922,0.0,-1e-05,-9e-05,-2e-05,-1e-05,0.0,-1e-05,-1e-05,1,1.0
1923,0.0,-1e-05,-9e-05,-2e-05,-1e-05,0.0,-1e-05,-1e-05,1,1.0
1924,0.0,-1e-05,-9e-05,-2e-05,-1e-05,0.0,-1e-05,-1e-05,1,1.0
1925,0.0,-1e-05,-9e-05,-2e-05,-1e-05,0.0,-1e-05,-1e-05,1,1.0
1926,0.0,-1e-05,-9e-05,-2e-05,-1e-05,0.0,-1e-05,-1e-05,1,1.0
1927,0.0,-1e-05,-9e-05,-2e-05,-1e-05,0.0,-1e-05,-1e-05,1,1.0
1928,0.0,-1e-05,-9e-05,-2e-05,-1e-05,0.0,-1e-05,-1e-05,1,1.0
1929,-1e-05,-2e-05,0.0,-2e-05,1e-05,-1e-05,0.0,0.0,1,1.0
1930,-1e-05,-1e-05,2e-05,-3e-05,-3e-05,0.0,-2e-05,0.0,1,1.0
1931,0.0,-2e-05,0.00014,8e-05,-1e-05,2e-05,-1e-05,-4e-05,1,1.0
1932,0.0,-2e-05,0.00014,8e-05,-1e-05,2e-05,-1e-05,-4e-05,1,1.0
1933,0.0,-2e-05,0.00014,8e-05,-1e-05,2e-05,-1e-05,-4e-05,1,1.0
1934,0.0,-2e-05,0.00014,8e-05,-1e-05,2e-05,-1e-05,-4e-05,1,1.0
1935,0.0,-2e-05,0.00014,8e-05,-1e-05,2e-05,-1e-05,-4e-05,1,1.0
1936,0.0,-2e-05,0.00014,8e-05,-1e-05,2e-05,-1e-05,-4e-05,1,1.0
1939,0.0,-2e-05,0.00014,8e-05,-1e-05,2e-05,-1e-05,-4e-05,1,1.0
1940,0.0,-2e-05,0.00014,8e-05,-1e-05,2e-05,-1e-05,-4e-05,1,1.0
1941,0.0,-2e-05,0.00014,8e-05,-1e-05,2e-05,-1e-05,-4e-05,1,1.0
1942,0.0,-2e-05,0.00014,8e-05,-1e-05,2e-05,-1e-05,-4e-05,1,1.0
1943,0.0,-2e-05,0.00014,8e-05,-1e-05,2e-05,-1e-05,-4e-05,1,1.0
1944,0.0,-2e-05,0.00014,8e-05,-1e-05,2e-05,-1e-05,-4e-05,1,1.0
1945,0.0,-2e-05,0.00014,8e-05,-1e-05,2e-05,-1e-05,-4e-05,1,1.0
1946,0.0,-2e-05,0.00014,8e-05,-1e-05,2e-05,-1e-05,-4e-05,1,1.0
1947,0.0,-2e-05,0.00014,8e-05,-1e-05,2e-05,-1e-05,-4e-05,1,1.0
1948,0.0,-2e-05,0.00014,8e-05,-1e-05,2e-05,-1e-05,-4e-05,1,1.0
1949,0.0,-2e-05,0.00014,8e-05,-1e-05,2e-05,-1e-05,-4e-05,1,1.0
1950,0.0,-2e-05,0.00014,8e-05,-1e-05,2e-05,-1e-05,-4e-05,1,1.0
1951,0.0,-2e-05,0.00014,8e-05,-1e-05,2e-05,-1e-05,-4e-05,1,1.0
1952,-1e-05,-2e-05,0.0,-6e-05,-1e-05,-4e-05,-1e-05,-1e-05,1,1.0
1953,0.0,-1e-05,-1e-05,2e-05,-2e-05,1e-05,1e-05,-2e-05,1,1.0
1954,-2e-05,-1e-05,-1e-05,-1e-05,-1e-05,0.0,1e-05,2e-05,1,1.0
1955,-2e-05,-1e-05,-1e-05,-1e-05,-1e-05,0.0,1e-05,2e-05,1,1.0
1956,-2e-05,-1e-05,-1e-05,-1e-05,-1e-05,0.0,1e-05,2e-05,1,1.0
1957,-2e-05,-1e-05,-1e-05,-1e-05,-1e-05,0.0,1e-05,2e-05,1,1.0
1958,-2e-05,-1e-05,-1e-05,-1e-05,-1e-05,0.0,1e-05,2e-05,1,1.0
1959,-2e-05,-1e-05,-1e-05,-1e-05,-1e-05,0.0,1e-05,2e-05,1,1.0
1960,-2e-05,-1e-05,-1e-05,-1e-05,-1e-05,0.0,1e-05,2e-05,1,1.0
1961,-2e-05,-1e-05,-1e-05,-1e-05,-1e-05,0.0,1e-05,2e-05,1,1.0
1962,-2e-05,-1e-05,-1e-05,-1e-05,-1e-05,0.0,1e-05,2e-05,1,1.0
1963,-2e-05,-1e-05,-1e-05,-1e-05,-1e-05,0.0,1e-05,2e-05,1,1.0
1964,-2e-05,-1e-05,-1e-05,-1e-05,-1e-05,0.0,1e-05,2e-05,1,1.0
1965,-2e-05,-1e-05,-1e-05,-1e-05,-1e-05,0.0,1e-05,2e-05,1,1.0
1966,-2e-05,-1e-05,-1e-05,-1e-05,-1e-05,0.0,1e-05,2e-05,1,1.0
1967,-2e-05,-1e-05,-1e-05,-1e-05,-1e-05,0.0,1e-05,2e-05,1,1.0
1968,-2e-05,-1e-05,-1e-05,-1e-05,-1e-05,0.0,1e-05,2e-05,1,1.0
1969,-2e-05,-1e-05,-1e-05,-1e-05,-1e-05,0.0,1e-05,2e-05,1,1.0
1970,-2e-05,-1e-05,-1e-05,-1e-05,-1e-05,0.0,1e-05,2e-05,1,1.0
1971,-2e-05,-1e-05,-1e-05,-1e-05,-1e-05,0.0,1e-05,2e-05,1,1.0
1972,-2e-05,-1e-05,-1e-05,-1e-05,-1e-05,0.0,1e-05,2e-05,1,1.0
1973,-2e-05,-1e-05,-1e-05,-1e-05,-1e-05,0.0,1e-05,2e-05,1,1.0
1974,1e-05,2e-05,7e-05,5e-05,-2e-05,-3e-05,-1e-05,-2e-05,1,1.0
1975,-3e-05,-3e-05,-5e-05,-1e-05,0.0,1e-05,-1e-05,-1e-05,1,1.0
1976,-1e-05,-4e-05,-9e-05,-4e-05,-3e-05,-2e-05,-2e-05,-2e-05,1,1.0
1977,-1e-05,-3e-05,-5e-05,-1e-05,3e-05,-1e-05,-2e-05,0.0,1,1.0
1978,-1e-05,-3e-05,-5e-05,-1e-05,3e-05,-1e-05,-2e-05,0.0,1,1.0
1979,-1e-05,-3e-05,-5e-05,-1e-05,3e-05,-1e-05,-2e-05,0.0,1,1.0
1980,-1e-05,-3e-05,-5e-05,-1e-05,3e-05,-1e-05,-2e-05,0.0,1,1.0
1981,-1e-05,-3e-05,-5e-05,-1e-05,3e-05,-1e-05,-2e-05,0.0,1,1.0
1982,-1e-05,-3e-05,-5e-05,-1e-05,3e-05,-1e-05,-2e-05,0.0,1,1.0
1983,-1e-05,-3e-05,-5e-05,-1e-05,3e-05,-1e-05,-2e-05,0.0,1,1.0
1984,-1e-05,-3e-05,-5e-05,-1e-05,3e-05,-1e-05,-2e-05,0.0,1,1.0
1985,-1e-05,-3e-05,-5e-05,-1e-05,3e-05,-1e-05,-2e-05,0.0,1,1.0
1986,-1e-05,-3e-05,-5e-05,-1e-05,3e-05,-1e-05,-2e-05,0.0,1,1.0
1989,0.0,2e-05,9e-05,3e-05,1e-05,0.0,-2e-05,-1e-05,1,1.0
1990,-2e-05,2e-05,-1e-05,1e-05,2e-05,-2e-05,1e-05,-1e-05,1,1.0
1991,-4e-05,1e-05,-0.00014,-6e-05,-3e-05,-4e-05,-2e-05,-3e-05,1,1.0
1992,-4e-05,1e-05,-0.00014,-6e-05,-3e-05,-4e-05,-2e-05,-3e-05,1,1.0
1993,-4e-05,1e-05,-0.00014,-6e-05,-3e-05,-4e-05,-2e-05,-3e-05,1,1.0
1994,-4e-05,1e-05,-0.00014,-6e-05,-3e-05,-4e-05,-2e-05,-3e-05,1,1.0
1995,-4e-05,1e-05,-0.00014,-6e-05,-3e-05,-4e-05,-2e-05,-3e-05,1,1.0
1996,-4e-05,1e-05,-0.00014,-6e-05,-3e-05,-4e-05,-2e-05,-3e-05,1,1.0
1997,-4e-05,1e-05,-0.00014,-6e-05,-3e-05,-4e-05,-2e-05,-3e-05,1,1.0
1998,-4e-05,1e-05,-0.00014,-6e-05,-3e-05,-4e-05,-2e-05,-3e-05,1,1.0
1999,-4e-05,1e-05,-0.00014,-6e-05,-3e-05,-4e-05,-2e-05,-3e-05,1,1.0
2001,-4e-05,1e-05,-0.00014,-6e-05,-3e-05,-4e-05,-2e-05,-3e-05,1,1.0
2002,-4e-05,1e-05,-0.00014,-6e-05,-3e-05,-4e-05,-2e-05,-3e-05,1,1.0
2003,-4e-05,1e-05,-0.00014,-6e-05,-3e-05,-4e-05,-2e-05,-3e-05,1,1.0
2004,-4e-05,1e-05,-0.00014,-6e-05,-3e-05,-4e-05,-2e-05,-3e-05,1,1.0
2005,-4e-05,1e-05,-0.00014,-6e-05,-3e-05,-4e-05,-2e-05,-3e-05,1,1.0
2006,-4e-05,1e-05,-0.00014,-6e-05,-3e-05,-4e-05,-2e-05,-3e-05,1,1.0
2007,-4e-05,1e-05,-0.00014,-6e-05,-3e-05,-4e-05,-2e-05,-3e-05,1,1.0
2008,-4e-05,1e-05,-0.00014,-6e-05,-3e-05,-4e-05,-2e-05,-3e-05,1,1.0
2009,-4e-05,1e-05,-0.00014,-6e-05,-3e-05,-4e-05,-2e-05,-3e-05,1,1.0
2010,-4e-05,1e-05,-0.00014,-6e-05,-3e-05,-4e-05,-2e-05,-3e-05,1,1.0
2011,-4e-05,1e-05,-0.00014,-6e-05,-3e-05,-4e-05,-2e-05,-3e-05,1,1.0
2012,-1e-05,-1e-05,4e-05,1e-05,0.0,-2e-05,-1e-05,-2e-05,1,1.0
2013,1e-05,2e-05,8e-05,4e-05,1e-05,-1e-05,-1e-05,1e-05,1,1.0
2014,0.0,-1e-05,-9e-05,-3e-05,-1e-05,-3e-05,1e-05,2e-05,1,1.0
2015,0.0,-1e-05,-9e-05,-3e-05,-1e-05,-3e-05,1e-05,2e-05,1,1.0
2016,0.0,-1e-05,-9e-05,-3e-05,-1e-05,-3e-05,1e-05,2e-05,1,1.0
2017,0.0,-1e-05,-9e-05,-3e-05,-1e-05,-3e-05,1e-05,2e-05,1,1.0
2018,0.0,-1e-05,-9e-05,-3e-05,-1e-05,-3e-05,1e-05,2e-05,1,1.0
2019,0.0,-1e-05,-9e-05,-3e-05,-1e-05,-3e-05,1e-05,2e-05,1,1.0
2020,0.0,-1e-05,-9e-05,-3e-05,-1e-05,-3e-05,1e-05,2e-05,1,1.0
2021,0.0,-1e-05,-9e-05,-3e-05,-1e-05,-3e-05,1e-05,2e-05,1,1.0
2022,0.0,-1e-05,-9e-05,-3e-05,-1e-05,-3e-05,1e-05,2e-05,1,1.0
2023,0.0,-1e-05,-9e-05,-3e-05,-1e-05,-3e-05,1e-05,2e-05,1,1.0
2024,0.0,-1e-05,-9e-05,-3e-05,-1e-05,-3e-05,1e-05,2e-05,1,1.0
2025,-2e-05,-7e-05,-2e-05,0.0,-1e-05,-2e-05,-1e-05,-6e-05,1,1.0
2026,-1e-05,2e-05,-4e-05,-2e-05,-2e-05,1e-05,-4e-05,-3e-05,1,1.0
2027,-1e-05,2e-05,-4e-05,-2e-05,-2e-05,1e-05,-4e-05,-3e-05,1,1.0
2028,-1e-05,2e-05,-4e-05,-2e-05,-2e-05,1e-05,-4e-05,-3e-05,1,1.0
2029,-1e-05,2e-05,-4e-05,-2e-05,-2e-05,1e-05,-4e-05,-3e-05,1,1.0
2030,-1e-05,2e-05,-4e-05,-2e-05,-2e-05,1e-05,-4e-05,-3e-05,1,1.0
2031,-1e-05,2e-05,-4e-05,-2e-05,-2e-05,1e-05,-4e-05,-3e-05,1,1.0
2032,-1e-05,2e-05,-4e-05,-2e-05,-2e-05,1e-05,-4e-05,-3e-05,1,1.0
2033,-1e-05,2e-05,-4e-05,-2e-05,-2e-05,1e-05,-4e-05,-3e-05,1,1.0
2034,-4e-05,-2e-05,4e-05,1e-05,2e-05,-1e-05,0.0,-1e-05,1,1.0
2035,0.0,-3e-05,-7e-05,-2e-05,-1e-05,-1e-05,-2e-05,1e-05,1,1.0
2036,0.0,-3e-05,-7e-05,-2e-05,-1e-05,-1e-05,-2e-05,1e-05,1,1.0
2039,0.0,-3e-05,-7e-05,-2e-05,-1e-05,-1e-05,-2e-05,1e-05,1,1.0
2040,0.0,-3e-05,-7e-05,-2e-05,-1e-05,-1e-05,-2e-05,1e-05,1,1.0
2041,0.0,-3e-05,-7e-05,-2e-05,-1e-05,-1e-05,-2e-05,1e-05,1,1.0
2042,0.0,-3e-05,-7e-05,-2e-05,-1e-05,-1e-05,-2e-05,1e-05,1,1.0
2043,0.0,-3e-05,-7e-05,-2e-05,-1e-05,-1e-05,-2e-05,1e-05,1,1.0
2044,0.0,-3e-05,-7e-05,-2e-05,-1e-05,-1e-05,-2e-05,1e-05,1,1.0
2045,0.0,-3e-05,-7e-05,-2e-05,-1e-05,-1e-05,-2e-05,1e-05,1,1.0
2046,0.0,-3e-05,-7e-05,-2e-05,-1e-05,-1e-05,-2e-05,1e-05,1,1.0
2047,0.0,-3e-05,-7e-05,-2e-05,-1e-05,-1e-05,-2e-05,1e-05,1,1.0
2048,0.0,-3e-05,-7e-05,-2e-05,-1e-05,-1e-05,-2e-05,1e-05,1,1.0
2049,-1e-05,2e-05,0.00018,2e-05,-1e-05,-1e-05,-3e-05,-2e-05,1,1.0
2050,2e-05,2e-05,6e-05,-1e-05,0.0,-1e-05,0.0,-2e-05,1,1.0
2051,-1e-05,0.0,1e-05,0.0,-2e-05,-1e-05,-1e-05,-2e-05,1,1.0
2052,-1e-05,0.0,1e-05,0.0,-2e-05,-1e-05,-1e-05,-2e-05,1,1.0
2053,-1e-05,0.0,1e-05,0.0,-2e-05,-1e-05,-1e-05,-2e-05,1,1.0
2054,-1e-05,0.0,1e-05,0.0,-2e-05,-1e-05,-1e-05,-2e-05,1,1.0
2055,-1e-05,0.0,1e-05,0.0,-2e-05,-1e-05,-1e-05,-2e-05,1,1.0
2056,-1e-05,0.0,1e-05,0.0,-2e-05,-1e-05,-1e-05,-2e-05,1,1.0
2057,-1e-05,0.0,1e-05,0.0,-2e-05,-1e-05,-1e-05,-2e-05,1,1.0
2058,-1e-05,0.0,1e-05,0.0,-2e-05,-1e-05,-1e-05,-2e-05,1,1.0
2059,-1e-05,0.0,1e-05,0.0,-2e-05,-1e-05,-1e-05,-2e-05,1,1.0
2060,-1e-05,0.0,1e-05,0.0,-2e-05,-1e-05,-1e-05,-2e-05,1,1.0
2061,-1e-05,0.0,1e-05,0.0,-2e-05,-1e-05,-1e-05,-2e-05,1,1.0
2062,-1e-05,0.0,1e-05,0.0,-2e-05,-1e-05,-1e-05,-2e-05,1,1.0
2063,-1e-05,0.0,1e-05,0.0,-2e-05,-1e-05,-1e-05,-2e-05,1,1.0
2064,-1e-05,0.0,1e-05,0.0,-2e-05,-1e-05,-1e-05,-2e-05,1,1.0
2065,-1e-05,0.0,1e-05,0.0,-2e-05,-1e-05,-1e-05,-2e-05,1,1.0
2066,-1e-05,0.0,1e-05,0.0,-2e-05,-1e-05,-1e-05,-2e-05,1,1.0
2067,-1e-05,0.0,1e-05,0.0,-2e-05,-1e-05,-1e-05,-2e-05,1,1.0
2068,-1e-05,0.0,1e-05,0.0,-2e-05,-1e-05,-1e-05,-2e-05,1,1.0
2069,-1e-05,0.0,1e-05,0.0,-2e-05,-1e-05,-1e-05,-2e-05,1,1.0
2070,-1e-05,0.0,1e-05,0.0,-2e-05,-1e-05,-1e-05,-2e-05,1,1.0
2071,-1e-05,0.0,1e-05,0.0,-2e-05,-1e-05,-1e-05,-2e-05,1,1.0
2072,-1e-05,0.0,1e-05,0.0,-2e-05,-1e-05,-1e-05,-2e-05,1,1.0
2073,-1e-05,0.0,1e-05,0.0,-2e-05,-1e-05,-1e-05,-2e-05,1,1.0
2074,-1e-05,0.0,1e-05,0.0,-2e-05,-1e-05,-1e-05,-2e-05,1,1.0
2075,-1e-05,0.0,1e-05,0.0,-2e-05,-1e-05,-1e-05,-2e-05,1,1.0
2076,-1e-05,0.0,1e-05,0.0,-2e-05,-1e-05,-1e-05,-2e-05,1,1.0
2077,-1e-05,0.0,1e-05,0.0,-2e-05,-1e-05,-1e-05,-2e-05,1,1.0
2079,-1e-05,0.0,1e-05,0.0,-2e-05,-1e-05,-1e-05,-2e-05,1,1.0
2080,-2e-05,-2e-05,-3e-05,-3e-05,-1e-05,0.0,-2e-05,-1e-05,1,1.0
2081,-1e-05,-3e-05,0.00014,0.0,-1e-05,-2e-05,0.0,0.0,1,1.0
2082,-1e-05,-3e-05,0.00014,0.0,-1e-05,-2e-05,0.0,0.0,1,1.0
2083,-1e-05,-3e-05,0.00014,0.0,-1e-05,-2e-05,0.0,0.0,1,1.0
2084,-1e-05,-3e-05,0.00014,0.0,-1e-05,-2e-05,0.0,0.0,1,1.0
2085,-1e-05,-3e-05,0.00014,0.0,-1e-05,-2e-05,0.0,0.0,1,1.0
2086,-1e-05,-3e-05,0.00014,0.0,-1e-05,-2e-05,0.0,0.0,1,1.0
2089,-1e-05,-3e-05,0.00014,0.0,-1e-05,-2e-05,0.0,0.0,1,1.0
2090,-1e-05,-3e-05,0.00014,0.0,-1e-05,-2e-05,0.0,0.0,1,1.0
2091,-1e-05,-3e-05,0.00014,0.0,-1e-05,-2e-05,0.0,0.0,1,1.0
2092,-1e-05,-3e-05,0.00014,0.0,-1e-05,-2e-05,0.0,0.0,1,1.0
2093,-1e-05,-3e-05,0.00014,0.0,-1e-05,-2e-05,0.0,0.0,1,1.0
2094,-1e-05,1e-05,-9e-05,4e-05,0.0,1e-05,-1e-05,-1e-05,1,1.0
2095,2e-05,1e-05,7e-05,-2e-05,-3e-05,0.0,-1e-05,2e-05,1,1.0
2096,-1e-05,1e-05,0.0,-3e-05,1e-05,1e-05,2e-05,-1e-05,1,1.0
2097,-1e-05,1e-05,0.0,-3e-05,1e-05,1e-05,2e-05,-1e-05,1,1.0
2098,-1e-05,1e-05,0.0,-3e-05,1e-05,1e-05,2e-05,-1e-05,1,1.0
2099,-1e-05,1e-05,0.0,-3e-05,1e-05,1e-05,2e-05,-1e-05,1,1.0
2100,-1e-05,1e-05,0.0,-3e-05,1e-05,1e-05,2e-05,-1e-05,1,1.0
2101,-1e-05,1e-05,0.0,-3e-05,1e-05,1e-05,2e-05,-1e-05,1,1.0
2102,-1e-05,1e-05,0.0,-3e-05,1e-05,1e-05,2e-05,-1e-05,1,1.0
2103,-1e-05,1e-05,0.0,-3e-05,1e-05,1e-05,2e-05,-1e-05,1,1.0
2104,-1e-05,1e-05,0.0,-3e-05,1e-05,1e-05,2e-05,-1e-05,1,1.0
2105,-1e-05,1e-05,0.0,-3e-05,1e-05,1e-05,2e-05,-1e-05,1,1.0
2106,-1e-05,1e-05,0.0,-3e-05,1e-05,1e-05,2e-05,-1e-05,1,1.0
2107,-1e-05,1e-05,0.0,-3e-05,1e-05,1e-05,2e-05,-1e-05,1,1.0
2108,-1e-05,1e-05,0.0,-3e-05,1e-05,1e-05,2e-05,-1e-05,1,1.0
2109,-1e-05,-3e-05,-9e-05,-1e-05,-2e-05,-2e-05,-2e-05,-2e-05,1,1.0
2110,-1e-05,-3e-05,-9e-05,-1e-05,-2e-05,-2e-05,-2e-05,-2e-05,1,1.0
2111,-1e-05,-3e-05,-9e-05,-1e-05,-2e-05,-2e-05,-2e-05,-2e-05,1,1.0
2112,-1e-05,2e-05,0.00016,5e-05,-1e-05,-2e-05,-3e-05,-1e-05,1,1.0
2113,-1e-05,2e-05,0.00016,5e-05,-1e-05,-2e-05,-3e-05,-1e-05,1,1.0
2114,-1e-05,2e-05,0.00016,5e-05,-1e-05,-2e-05,-3e-05,-1e-05,1,1.0
2115,-1e-05,2e-05,0.00016,5e-05,-1e-05,-2e-05,-3e-05,-1e-05,1,1.0
2116,-1e-05,2e-05,0.00016,5e-05,-1e-05,-2e-05,-3e-05,-1e-05,1,1.0
2117,-1e-05,2e-05,0.00016,5e-05,-1e-05,-2e-05,-3e-05,-1e-05,1,1.0
2118,-1e-05,2e-05,0.00016,5e-05,-1e-05,-2e-05,-3e-05,-1e-05,1,1.0
2119,-1e-05,2e-05,0.00016,5e-05,-1e-05,-2e-05,-3e-05,-1e-05,1,1.0
2120,-1e-05,2e-05,0.00016,5e-05,-1e-05,-2e-05,-3e-05,-1e-05,1,1.0
2121,-1e-05,2e-05,0.00016,5e-05,-1e-05,-2e-05,-3e-05,-1e-05,1,1.0
2122,-1e-05,2e-05,0.00016,5e-05,-1e-05,-2e-05,-3e-05,-1e-05,1,1.0
2123,-1e-05,2e-05,0.00016,5e-05,-1e-05,-2e-05,-3e-05,-1e-05,1,1.0
2124,-1e-05,2e-05,0.00016,5e-05,-1e-05,-2e-05,-3e-05,-1e-05,1,1.0
2125,-1e-05,2e-05,0.00016,5e-05,-1e-05,-2e-05,-3e-05,-1e-05,1,1.0
2126,-1e-05,2e-05,0.00016,5e-05,-1e-05,-2e-05,-3e-05,-1e-05,1,1.0
2127,-1e-05,2e-05,0.00016,5e-05,-1e-05,-2e-05,-3e-05,-1e-05,1,1.0
2128,-1e-05,2e-05,0.00016,5e-05,-1e-05,-2e-05,-3e-05,-1e-05,1,1.0
2129,-1e-05,2e-05,0.00016,5e-05,-1e-05,-2e-05,-3e-05,-1e-05,1,1.0
2130,-1e-05,2e-05,0.00016,5e-05,-1e-05,-2e-05,-3e-05,-1e-05,1,1.0
2131,-1e-05,2e-05,0.00016,5e-05,-1e-05,-2e-05,-3e-05,-1e-05,1,1.0
2132,0.0,-5e-05,-0.00011,-3e-05,-2e-05,-2e-05,0.0,2e-05,1,1.0
2133,-2e-05,-3e-05,-4e-05,-6e-05,-4e-05,-1e-05,-1e-05,0.0,1,1.0
2134,1e-05,0.0,3e-05,2e-05,1e-05,2e-05,0.0,-1e-05,1,1.0
2135,1e-05,0.0,3e-05,2e-05,1e-05,2e-05,0.0,-1e-05,1,1.0
2136,1e-05,0.0,3e-05,2e-05,1e-05,2e-05,0.0,-1e-05,1,1.0
2138,1e-05,0.0,3e-05,2e-05,1e-05,2e-05,0.0,-1e-05,1,1.0
2139,1e-05,0.0,3e-05,2e-05,1e-05,2e-05,0.0,-1e-05,1,1.0
2140,1e-05,0.0,3e-05,2e-05,1e-05,2e-05,0.0,-1e-05,1,1.0
2141,1e-05,0.0,3e-05,2e-05,1e-05,2e-05,0.0,-1e-05,1,1.0
2142,1e-05,0.0,3e-05,2e-05,1e-05,2e-05,0.0,-1e-05,1,1.0
2143,1e-05,0.0,3e-05,2e-05,1e-05,2e-05,0.0,-1e-05,1,1.0
2144,1e-05,0.0,3e-05,2e-05,1e-05,2e-05,0.0,-1e-05,1,1.0
2145,1e-05,0.0,3e-05,2e-05,1e-05,2e-05,0.0,-1e-05,1,1.0
2146,1e-05,0.0,3e-05,2e-05,1e-05,2e-05,0.0,-1e-05,1,1.0
2147,1e-05,0.0,3e-05,2e-05,1e-05,2e-05,0.0,-1e-05,1,1.0
2148,1e-05,0.0,3e-05,2e-05,1e-05,2e-05,0.0,-1e-05,1,1.0
2149,1e-05,0.0,3e-05,2e-05,1e-05,2e-05,0.0,-1e-05,1,1.0
2150,1e-05,0.0,3e-05,2e-05,1e-05,2e-05,0.0,-1e-05,1,1.0
2151,1e-05,0.0,3e-05,2e-05,1e-05,2e-05,0.0,-1e-05,1,1.0
2152,1e-05,0.0,3e-05,2e-05,1e-05,2e-05,0.0,-1e-05,1,1.0
2153,1e-05,0.0,3e-05,2e-05,1e-05,2e-05,0.0,-1e-05,1,1.0
2154,1e-05,-3e-05,-0.0001,-1e-05,-2e-05,-4e-05,-1e-05,1e-05,1,1.0
2155,-1e-05,-2e-05,1e-05,0.0,0.0,-1e-05,-1e-05,1e-05,1,1.0
2156,-1e-05,-1e-05,-1e-05,7e-05,-3e-05,0.0,-2e-05,-3e-05,1,1.0
2157,-1e-05,-1e-05,-1e-05,7e-05,-3e-05,0.0,-2e-05,-3e-05,1,1.0
2158,-1e-05,-1e-05,-1e-05,7e-05,-3e-05,0.0,-2e-05,-3e-05,1,1.0
2159,-1e-05,-1e-05,-1e-05,7e-05,-3e-05,0.0,-2e-05,-3e-05,1,1.0
2160,-1e-05,-1e-05,-1e-05,7e-05,-3e-05,0.0,-2e-05,-3e-05,1,1.0
2161,-1e-05,-1e-05,-1e-05,7e-05,-3e-05,0.0,-2e-05,-3e-05,1,1.0
2162,-1e-05,-1e-05,-1e-05,7e-05,-3e-05,0.0,-2e-05,-3e-05,1,1.0
2163,-1e-05,-1e-05,-1e-05,7e-05,-3e-05,0.0,-2e-05,-3e-05,1,1.0
2164,-1e-05,-1e-05,-1e-05,7e-05,-3e-05,0.0,-2e-05,-3e-05,1,1.0
2165,-1e-05,-1e-05,-1e-05,7e-05,-3e-05,0.0,-2e-05,-3e-05,1,1.0
2166,-1e-05,-1e-05,-1e-05,7e-05,-3e-05,0.0,-2e-05,-3e-05,1,1.0
2167,-1e-05,-1e-05,-1e-05,7e-05,-3e-05,0.0,-2e-05,-3e-05,1,1.0
2168,-1e-05,-1e-05,-1e-05,7e-05,-3e-05,0.0,-2e-05,-3e-05,1,1.0
2169,-1e-05,4e-05,1e-05,-2e-05,0.0,1e-05,-1e-05,1e-05,1,1.0
2170,-1e-05,1e-05,9e-05,0.0,-2e-05,0.0,1e-05,-1e-05,1,1.0
2171,-2e-05,0.0,-9e-05,-5e-05,2e-05,1e-05,1e-05,3e-05,1,1.0
2172,-2e-05,0.0,-9e-05,-5e-05,2e-05,1e-05,1e-05,3e-05,1,1.0
2173,-2e-05,0.0,-9e-05,-5e-05,2e-05,1e-05,1e-05,3e-05,1,1.0
2174,-2e-05,0.0,-9e-05,-5e-05,2e-05,1e-05,1e-05,3e-05,1,1.0
2175,-2e-05,0.0,-9e-05,-5e-05,2e-05,1e-05,1e-05,3e-05,1,1.0
2176,-2e-05,0.0,-9e-05,-5e-05,2e-05,1e-05,1e-05,3e-05,1,1.0
2177,-2e-05,0.0,-9e-05,-5e-05,2e-05,1e-05,1e-05,3e-05,1,1.0
2178,-2e-05,0.0,-9e-05,-5e-05,2e-05,1e-05,1e-05,3e-05,1,1.0
2179,-2e-05,0.0,-9e-05,-5e-05,2e-05,1e-05,1e-05,3e-05,1,1.0
2180,-2e-05,0.0,-9e-05,-5e-05,2e-05,1e-05,1e-05,3e-05,1,1.0
2181,-2e-05,0.0,-9e-05,-5e-05,2e-05,1e-05,1e-05,3e-05,1,1.0
2182,-2e-05,0.0,-9e-05,-5e-05,2e-05,1e-05,1e-05,3e-05,1,1.0
2183,-2e-05,0.0,-9e-05,-5e-05,2e-05,1e-05,1e-05,3e-05,1,1.0
2184,-2e-05,0.0,-9e-05,-5e-05,2e-05,1e-05,1e-05,3e-05,1,1.0
2185,-2e-05,0.0,-9e-05,-5e-05,2e-05,1e-05,1e-05,3e-05,1,1.0
2186,-2e-05,0.0,-9e-05,-5e-05,2e-05,1e-05,1e-05,3e-05,1,1.0
2188,-2e-05,0.0,-9e-05,-5e-05,2e-05,1e-05,1e-05,3e-05,1,1.0
2189,-2e-05,0.0,-9e-05,-5e-05,2e-05,1e-05,1e-05,3e-05,1,1.0
2190,-2e-05,0.0,-9e-05,-5e-05,2e-05,1e-05,1e-05,3e-05,1,1.0
2191,-2e-05,0.0,-9e-05,-5e-05,2e-05,1e-05,1e-05,3e-05,1,1.0
2192,1e-05,1e-05,2e-05,1e-05,1e-05,0.0,-2e-05,-1e-05,1,1.0
2193,-2e-05,-1e-05,-2e-05,2e-05,0.0,0.0,1e-05,-2e-05,1,1.0
2194,-1e-05,-3e-05,-0.00011,-7e-05,-1e-05,0.0,-2e-05,-1e-05,1,1.0
2195,-1e-05,-3e-05,-0.00011,-7e-05,-1e-05,0.0,-2e-05,-1e-05,1,1.0
2196,-1e-05,-3e-05,-0.00011,-7e-05,-1e-05,0.0,-2e-05,-1e-05,1,1.0
2197,-1e-05,-3e-05,-0.00011,-7e-05,-1e-05,0.0,-2e-05,-1e-05,1,1.0
2198,-1e-05,-3e-05,-0.00011,-7e-05,-1e-05,0.0,-2e-05,-1e-05,1,1.0
2199,-1e-05,-3e-05,-0.00011,-7e-05,-1e-05,0.0,-2e-05,-1e-05,1,1.0
2200,-1e-05,-3e-05,-0.00011,-7e-05,-1e-05,0.0,-2e-05,-1e-05,1,1.0
2201,-1e-05,-3e-05,-0.00011,-7e-05,-1e-05,0.0,-2e-05,-1e-05,1,1.0
2202,-1e-05,-3e-05,-0.00011,-7e-05,-1e-05,0.0,-2e-05,-1e-05,1,1.0
2203,-1e-05,-3e-05,-0.00011,-7e-05,-1e-05,0.0,-2e-05,-1e-05,1,1.0
2204,-1e-05,-3e-05,-0.00011,-7e-05,-1e-05,0.0,-2e-05,-1e-05,1,1.0
2205,-1e-05,-3e-05,-0.00011,-7e-05,-1e-05,0.0,-2e-05,-1e-05,1,1.0
2206,-1e-05,-3e-05,-0.00011,-7e-05,-1e-05,0.0,-2e-05,-1e-05,1,1.0
2207,-1e-05,-3e-05,-0.00011,-7e-05,-1e-05,0.0,-2e-05,-1e-05,1,1.0
2208,-1e-05,-3e-05,-0.00011,-7e-05,-1e-05,0.0,-2e-05,-1e-05,1,1.0
2209,-1e-05,-3e-05,-0.00011,-7e-05,-1e-05,0.0,-2e-05,-1e-05,1,1.0
2210,-1e-05,-3e-05,-0.00011,-7e-05,-1e-05,0.0,-2e-05,-1e-05,1,1.0
2211,-1e-05,-3e-05,-0.00011,-7e-05,-1e-05,0.0,-2e-05,-1e-05,1,1.0
2212,-1e-05,-3e-05,-0.00011,-7e-05,-1e-05,0.0,-2e-05,-1e-05,1,1.0
2213,-1e-05,-3e-05,-0.00011,-7e-05,-1e-05,0.0,-2e-05,-1e-05,1,1.0
2214,-1e-05,-3e-05,-0.00011,-7e-05,-1e-05,0.0,-2e-05,-1e-05,1,1.0
2215,-1e-05,-3e-05,-0.00011,-7e-05,-1e-05,0.0,-2e-05,-1e-05,1,1.0
2216,-1e-05,-3e-05,-0.00011,-7e-05,-1e-05,0.0,-2e-05,-1e-05,1,1.0
2217,-1e-05,-3e-05,-0.00011,-7e-05,-1e-05,0.0,-2e-05,-1e-05,1,1.0
2218,-1e-05,-3e-05,-0.00011,-7e-05,-1e-05,0.0,-2e-05,-1e-05,1,1.0
2219,-1e-05,-3e-05,-0.00011,-7e-05,-1e-05,0.0,-2e-05,-1e-05,1,1.0
2220,-1e-05,-3e-05,-0.00011,-7e-05,-1e-05,0.0,-2e-05,-1e-05,1,1.0
2221,-1e-05,-3e-05,-0.00011,-7e-05,-1e-05,0.0,-2e-05,-1e-05,1,1.0
2222,2e-05,0.0,0.0,1e-05,0.0,0.0,-1e-05,-5e-05,1,1.0
2223,0.0,4e-05,0.00011,3e-05,0.0,-1e-05,1e-05,-2e-05,1,1.0
2224,-2e-05,-4e-05,-1e-05,-5e-05,-2e-05,-2e-05,1e-05,0.0,1,1.0
2225,-2e-05,-4e-05,-1e-05,-5e-05,-2e-05,-2e-05,1e-05,0.0,1,1.0
2226,-2e-05,-4e-05,-1e-05,-5e-05,-2e-05,-2e-05,1e-05,0.0,1,1.0
2227,-2e-05,-4e-05,-1e-05,-5e-05,-2e-05,-2e-05,1e-05,0.0,1,1.0
2228,-2e-05,-4e-05,-1e-05,-5e-05,-2e-05,-2e-05,1e-05,0.0,1,1.0
2229,-3e-05,0.0,-5e-05,-2e-05,-3e-05,1e-05,-2e-05,0.0,1,1.0
2230,-3e-05,0.0,-5e-05,-2e-05,-3e-05,1e-05,-2e-05,0.0,1,1.0
2231,-3e-05,0.0,-5e-05,-2e-05,-3e-05,1e-05,-2e-05,0.0,1,1.0
2232,-3e-05,0.0,-5e-05,-2e-05,-3e-05,1e-05,-2e-05,0.0,1,1.0
2233,-3e-05,0.0,-5e-05,-2e-05,-3e-05,1e-05,-2e-05,0.0,1,1.0
2234,-3e-05,0.0,-5e-05,-2e-05,-3e-05,1e-05,-2e-05,0.0,1,1.0
2235,-2e-05,-2e-05,-4e-05,-2e-05,-2e-05,-4e-05,-3e-05,1e-05,1,1.0
2236,-1e-05,-3e-05,-8e-05,-1e-05,-1e-05,-2e-05,-2e-05,-1e-05,1,1.0
2239,-1e-05,-3e-05,-8e-05,-1e-05,-1e-05,-2e-05,-2e-05,-1e-05,1,1.0
2240,-1e-05,-3e-05,-8e-05,-1e-05,-1e-05,-2e-05,-2e-05,-1e-05,1,1.0
2241,-1e-05,-3e-05,-8e-05,-1e-05,-1e-05,-2e-05,-2e-05,-1e-05,1,1.0
2242,-1e-05,-3e-05,-8e-05,-1e-05,-1e-05,-2e-05,-2e-05,-1e-05,1,1.0
2243,-1e-05,-3e-05,-8e-05,-1e-05,-1e-05,-2e-05,-2e-05,-1e-05,1,1.0
2244,-1e-05,-3e-05,-8e-05,-1e-05,-1e-05,-2e-05,-2e-05,-1e-05,1,1.0
2245,-1e-05,-3e-05,-8e-05,-1e-05,-1e-05,-2e-05,-2e-05,-1e-05,1,1.0
2246,-1e-05,-3e-05,-8e-05,-1e-05,-1e-05,-2e-05,-2e-05,-1e-05,1,1.0
2247,-1e-05,-3e-05,-8e-05,-1e-05,-1e-05,-2e-05,-2e-05,-1e-05,1,1.0
2248,-1e-05,-3e-05,-8e-05,-1e-05,-1e-05,-2e-05,-2e-05,-1e-05,1,1.0
2249,-1e-05,-3e-05,-8e-05,-1e-05,-1e-05,-2e-05,-2e-05,-1e-05,1,1.0
2251,-1e-05,-3e-05,-8e-05,-1e-05,-1e-05,-2e-05,-2e-05,-1e-05,1,1.0
2252,-1e-05,-1e-05,-1e-05,0.0,1e-05,-2e-05,-2e-05,-1e-05,1,1.0
2253,-1e-05,1e-05,-4e-05,-2e-05,-1e-05,-2e-05,0.0,-3e-05,1,1.0
2254,-1e-05,1e-05,-4e-05,-2e-05,-1e-05,-2e-05,0.0,-3e-05,1,1.0
2255,-1e-05,1e-05,-4e-05,-2e-05,-1e-05,-2e-05,0.0,-3e-05,1,1.0
2256,-1e-05,1e-05,-4e-05,-2e-05,-1e-05,-2e-05,0.0,-3e-05,1,1.0
2257,-1e-05,1e-05,-4e-05,-2e-05,-1e-05,-2e-05,0.0,-3e-05,1,1.0
2258,-1e-05,1e-05,-4e-05,-2e-05,-1e-05,-2e-05,0.0,-3e-05,1,1.0
2259,-1e-05,1e-05,-4e-05,-2e-05,-1e-05,-2e-05,0.0,-3e-05,1,1.0
2260,-1e-05,1e-05,-4e-05,-2e-05,-1e-05,-2e-05,0.0,-3e-05,1,1.0
2261,-1e-05,1e-05,-4e-05,-2e-05,-1e-05,-2e-05,0.0,-3e-05,1,1.0
2262,-1e-05,1e-05,-4e-05,-2e-05,-1e-05,-2e-05,0.0,-3e-05,1,1.0
2263,-1e-05,1e-05,-4e-05,-2e-05,-1e-05,-2e-05,0.0,-3e-05,1,1.0
2264,-1e-05,1e-05,-4e-05,-2e-05,-1e-05,-2e-05,0.0,-3e-05,1,1.0
2265,-1e-05,1e-05,-4e-05,-2e-05,-1e-05,-2e-05,0.0,-3e-05,1,1.0
2266,-1e-05,1e-05,-4e-05,-2e-05,-1e-05,-2e-05,0.0,-3e-05,1,1.0
2267,-1e-05,1e-05,-4e-05,-2e-05,-1e-05,-2e-05,0.0,-3e-05,1,1.0
2268,-1e-05,1e-05,-4e-05,-2e-05,-1e-05,-2e-05,0.0,-3e-05,1,1.0
2269,-1e-05,1e-05,-4e-05,-2e-05,-1e-05,-2e-05,0.0,-3e-05,1,1.0
2271,-1e-05,1e-05,-4e-05,-2e-05,-1e-05,-2e-05,0.0,-3e-05,1,1.0
2272,-1e-05,1e-05,-4e-05,-2e-05,-1e-05,-2e-05,0.0,-3e-05,1,1.0
2273,-1e-05,1e-05,-4e-05,-2e-05,-1e-05,-2e-05,0.0,-3e-05,1,1.0
2274,-4e-05,-1e-05,-0.00014,-4e-05,-2e-05,0.0,-2e-05,-1e-05,1,1.0
2275,-4e-05,-1e-05,-0.00014,-4e-05,-2e-05,0.0,-2e-05,-1e-05,1,1.0
2276,-4e-05,-1e-05,-0.00014,-4e-05,-2e-05,0.0,-2e-05,-1e-05,1,1.0
2277,-4e-05,-1e-05,-0.00014,-4e-05,-2e-05,0.0,-2e-05,-1e-05,1,1.0
2278,-4e-05,-1e-05,-0.00014,-4e-05,-2e-05,0.0,-2e-05,-1e-05,1,1.0
2279,-4e-05,-1e-05,-0.00014,-4e-05,-2e-05,0.0,-2e-05,-1e-05,1,1.0
2280,-4e-05,-1e-05,-0.00014,-4e-05,-2e-05,0.0,-2e-05,-1e-05,1,1.0
2281,-4e-05,-1e-05,-0.00014,-4e-05,-2e-05,0.0,-2e-05,-1e-05,1,1.0
2282,-1e-05,-2e-05,-2e-05,0.0,-5e-05,-1e-05,-2e-05,-3e-05,1,1.0
2283,-1e-05,-2e-05,-2e-05,0.0,-5e-05,-1e-05,-2e-05,-3e-05,1,1.0
2284,-1e-05,-2e-05,-2e-05,0.0,-5e-05,-1e-05,-2e-05,-3e-05,1,1.0
2285,-1e-05,-2e-05,-2e-05,0.0,-5e-05,-1e-05,-2e-05,-3e-05,1,1.0
2286,-1e-05,-2e-05,-2e-05,0.0,-5e-05,-1e-05,-2e-05,-3e-05,1,1.0
2289,-3e-05,0.0,-1e-05,-6e-05,-1e-05,-4e-05,-1e-05,-1e-05,1,1.0
2290,-3e-05,0.0,-1e-05,-6e-05,-1e-05,-4e-05,-1e-05,-1e-05,1,1.0
2291,-3e-05,0.0,-1e-05,-6e-05,-1e-05,-4e-05,-1e-05,-1e-05,1,1.0
2292,-3e-05,0.0,-1e-05,-6e-05,-1e-05,-4e-05,-1e-05,-1e-05,1,1.0
2293,-3e-05,0.0,-1e-05,-6e-05,-1e-05,-4e-05,-1e-05,-1e-05,1,1.0
2294,-3e-05,0.0,-1e-05,-6e-05,-1e-05,-4e-05,-1e-05,-1e-05,1,1.0
2295,-2e-05,0.0,0.00011,2e-05,-1e-05,-2e-05,-3e-05,-1e-05,1,1.0
2296,0.0,-1e-05,-0.00012,-2e-05,-2e-05,-2e-05,0.0,1e-05,1,1.0
2297,0.0,-1e-05,-0.00012,-2e-05,-2e-05,-2e-05,0.0,1e-05,1,1.0
2298,0.0,-1e-05,-0.00012,-2e-05,-2e-05,-2e-05,0.0,1e-05,1,1.0
2299,0.0,-1e-05,-0.00012,-2e-05,-2e-05,-2e-05,0.0,1e-05,1,1.0
2300,0.0,-1e-05,-0.00012,-2e-05,-2e-05,-2e-05,0.0,1e-05,1,1.0
2301,0.0,-1e-05,-0.00012,-2e-05,-2e-05,-2e-05,0.0,1e-05,1,1.0
2302,0.0,-1e-05,-0.00012,-2e-05,-2e-05,-2e-05,0.0,1e-05,1,1.0
2303,0.0,-1e-05,-0.00012,-2e-05,-2e-05,-2e-05,0.0,1e-05,1,1.0
2304,0.0,-1e-05,-0.00012,-2e-05,-2e-05,-2e-05,0.0,1e-05,1,1.0
2305,0.0,-1e-05,-0.00012,-2e-05,-2e-05,-2e-05,0.0,1e-05,1,1.0
2306,0.0,-1e-05,-0.00012,-2e-05,-2e-05,-2e-05,0.0,1e-05,1,1.0
2307,0.0,-1e-05,-0.00012,-2e-05,-2e-05,-2e-05,0.0,1e-05,1,1.0
2308,0.0,-1e-05,-0.00012,-2e-05,-2e-05,-2e-05,0.0,1e-05,1,1.0
2309,0.0,-1e-05,-0.00012,-2e-05,-2e-05,-2e-05,0.0,1e-05,1,1.0
2310,0.0,-1e-05,-0.00012,-2e-05,-2e-05,-2e-05,0.0,1e-05,1,1.0
2311,0.0,-1e-05,-0.00012,-2e-05,-2e-05,-2e-05,0.0,1e-05,1,1.0
2312,-2e-05,-1e-05,0.00012,0.0,-4e-05,-2e-05,-3e-05,-1e-05,1,1.0
2313,-2e-05,-1e-05,0.00012,0.0,-4e-05,-2e-05,-3e-05,-1e-05,1,1.0
2314,-2e-05,3e-05,0.00012,1e-05,0.0,1e-05,-2e-05,-1e-05,1,1.0
2315,-2e-05,3e-05,0.00012,1e-05,0.0,1e-05,-2e-05,-1e-05,1,1.0
2316,-2e-05,3e-05,0.00012,1e-05,0.0,1e-05,-2e-05,-1e-05,1,1.0
2317,-2e-05,3e-05,0.00012,1e-05,0.0,1e-05,-2e-05,-1e-05,1,1.0
2318,-2e-05,3e-05,0.00012,1e-05,0.0,1e-05,-2e-05,-1e-05,1,1.0
2319,-2e-05,3e-05,0.00012,1e-05,0.0,1e-05,-2e-05,-1e-05,1,1.0
2320,-2e-05,3e-05,0.00012,1e-05,0.0,1e-05,-2e-05,-1e-05,1,1.0
2321,-2e-05,3e-05,0.00012,1e-05,0.0,1e-05,-2e-05,-1e-05,1,1.0
2322,-2e-05,3e-05,0.00012,1e-05,0.0,1e-05,-2e-05,-1e-05,1,1.0
2323,-2e-05,3e-05,0.00012,1e-05,0.0,1e-05,-2e-05,-1e-05,1,1.0
2324,-2e-05,3e-05,0.00012,1e-05,0.0,1e-05,-2e-05,-1e-05,1,1.0
2325,-2e-05,3e-05,0.00012,1e-05,0.0,1e-05,-2e-05,-1e-05,1,1.0
2326,-2e-05,3e-05,0.00012,1e-05,0.0,1e-05,-2e-05,-1e-05,1,1.0
2327,-2e-05,3e-05,0.00012,1e-05,0.0,1e-05,-2e-05,-1e-05,1,1.0
2328,-2e-05,3e-05,0.00012,1e-05,0.0,1e-05,-2e-05,-1e-05,1,1.0
2329,-2e-05,3e-05,0.00012,1e-05,0.0,1e-05,-2e-05,-1e-05,1,1.0
2330,-2e-05,3e-05,0.00012,1e-05,0.0,1e-05,-2e-05,-1e-05,1,1.0
2331,-2e-05,3e-05,0.00012,1e-05,0.0,1e-05,-2e-05,-1e-05,1,1.0
2332,-2e-05,3e-05,0.00012,1e-05,0.0,1e-05,-2e-05,-1e-05,1,1.0
2333,-2e-05,3e-05,0.00012,1e-05,0.0,1e-05,-2e-05,-1e-05,1,1.0
2334,0.0,-1e-05,-0.0001,2e-05,0.0,-2e-05,0.0,1e-05,1,1.0
2335,-1e-05,3e-05,0.00015,3e-05,0.0,-3e-05,0.0,-2e-05,1,1.0
2337,-2e-05,-8e-05,-0.00022,-0.00011,-4e-05,-2e-05,0.0,-3e-05,1,1.0
2339,-2e-05,-8e-05,-0.00022,-0.00011,-4e-05,-2e-05,0.0,-3e-05,1,1.0
2340,-2e-05,-8e-05,-0.00022,-0.00011,-4e-05,-2e-05,0.0,-3e-05,1,1.0
2341,-2e-05,-8e-05,-0.00022,-0.00011,-4e-05,-2e-05,0.0,-3e-05,1,1.0
2342,-2e-05,-8e-05,-0.00022,-0.00011,-4e-05,-2e-05,0.0,-3e-05,1,1.0
2343,-2e-05,-8e-05,-0.00022,-0.00011,-4e-05,-2e-05,0.0,-3e-05,1,1.0
2344,-2e-05,-8e-05,-0.00022,-0.00011,-4e-05,-2e-05,0.0,-3e-05,1,1.0
2345,-2e-05,-8e-05,-0.00022,-0.00011,-4e-05,-2e-05,0.0,-3e-05,1,1.0
2346,-2e-05,-8e-05,-0.00022,-0.00011,-4e-05,-2e-05,0.0,-3e-05,1,1.0
2347,-2e-05,-8e-05,-0.00022,-0.00011,-4e-05,-2e-05,0.0,-3e-05,1,1.0
2348,-2e-05,-8e-05,-0.00022,-0.00011,-4e-05,-2e-05,0.0,-3e-05,1,1.0
2349,1e-05,-1e-05,7e-05,4e-05,-2e-05,2e-05,0.0,-1e-05,1,1.0
2350,1e-05,-1e-05,7e-05,4e-05,-2e-05,2e-05,0.0,-1e-05,1,1.0
2351,1e-05,-1e-05,7e-05,4e-05,-2e-05,2e-05,0.0,-1e-05,1,1.0
2352,1e-05,-1e-05,7e-05,4e-05,-2e-05,2e-05,0.0,-1e-05,1,1.0
2353,1e-05,-1e-05,7e-05,4e-05,-2e-05,2e-05,0.0,-1e-05,1,1.0
2354,1e-05,-1e-05,7e-05,4e-05,-2e-05,2e-05,0.0,-1e-05,1,1.0
2355,1e-05,-1e-05,7e-05,4e-05,-2e-05,2e-05,0.0,-1e-05,1,1.0
2356,1e-05,-1e-05,7e-05,4e-05,-2e-05,2e-05,0.0,-1e-05,1,1.0
2357,1e-05,-1e-05,7e-05,4e-05,-2e-05,2e-05,0.0,-1e-05,1,1.0
2358,1e-05,-1e-05,7e-05,4e-05,-2e-05,2e-05,0.0,-1e-05,1,1.0
2359,1e-05,-1e-05,7e-05,4e-05,-2e-05,2e-05,0.0,-1e-05,1,1.0
2360,1e-05,-1e-05,7e-05,4e-05,-2e-05,2e-05,0.0,-1e-05,1,1.0
2361,1e-05,-1e-05,7e-05,4e-05,-2e-05,2e-05,0.0,-1e-05,1,1.0
2362,1e-05,-1e-05,7e-05,4e-05,-2e-05,2e-05,0.0,-1e-05,1,1.0
2363,0.0,-3e-05,-4e-05,2e-05,0.0,-2e-05,0.0,-3e-05,1,1.0
2364,0.0,-3e-05,-4e-05,2e-05,0.0,-2e-05,0.0,-3e-05,1,1.0
2365,0.0,-3e-05,-4e-05,2e-05,0.0,-2e-05,0.0,-3e-05,1,1.0
2366,0.0,-3e-05,-4e-05,2e-05,0.0,-2e-05,0.0,-3e-05,1,1.0
2367,0.0,-3e-05,-4e-05,2e-05,0.0,-2e-05,0.0,-3e-05,1,1.0
2368,0.0,-3e-05,-4e-05,2e-05,0.0,-2e-05,0.0,-3e-05,1,1.0
2369,0.0,-3e-05,-4e-05,2e-05,0.0,-2e-05,0.0,-3e-05,1,1.0
2371,0.0,-3e-05,-4e-05,2e-05,0.0,-2e-05,0.0,-3e-05,1,1.0
2372,-1e-05,0.0,-5e-05,0.0,-2e-05,-2e-05,2e-05,-1e-05,1,1.0
2373,0.0,0.0,8e-05,-1e-05,-3e-05,-3e-05,-3e-05,1e-05,1,1.0
2374,-1e-05,-6e-05,-0.00015,-6e-05,-1e-05,1e-05,-1e-05,-2e-05,1,1.0
2375,-1e-05,-6e-05,-0.00015,-6e-05,-1e-05,1e-05,-1e-05,-2e-05,1,1.0
2376,-1e-05,-6e-05,-0.00015,-6e-05,-1e-05,1e-05,-1e-05,-2e-05,1,1.0
2377,-1e-05,-6e-05,-0.00015,-6e-05,-1e-05,1e-05,-1e-05,-2e-05,1,1.0
2378,-1e-05,-6e-05,-0.00015,-6e-05,-1e-05,1e-05,-1e-05,-2e-05,1,1.0
2379,-1e-05,-6e-05,-0.00015,-6e-05,-1e-05,1e-05,-1e-05,-2e-05,1,1.0
2380,-1e-05,-6e-05,-0.00015,-6e-05,-1e-05,1e-05,-1e-05,-2e-05,1,1.0
2381,-1e-05,-6e-05,-0.00015,-6e-05,-1e-05,1e-05,-1e-05,-2e-05,1,1.0
2382,-1e-05,-6e-05,-0.00015,-6e-05,-1e-05,1e-05,-1e-05,-2e-05,1,1.0
2383,-1e-05,-6e-05,-0.00015,-6e-05,-1e-05,1e-05,-1e-05,-2e-05,1,1.0
2384,-1e-05,-6e-05,-0.00015,-6e-05,-1e-05,1e-05,-1e-05,-2e-05,1,1.0
2385,-1e-05,-6e-05,-0.00015,-6e-05,-1e-05,1e-05,-1e-05,-2e-05,1,1.0
2386,-1e-05,-6e-05,-0.00015,-6e-05,-1e-05,1e-05,-1e-05,-2e-05,1,1.0
2388,-1e-05,-6e-05,-0.00015,-6e-05,-1e-05,1e-05,-1e-05,-2e-05,1,1.0
2389,-1e-05,-6e-05,-0.00015,-6e-05,-1e-05,1e-05,-1e-05,-2e-05,1,1.0
2390,-1e-05,-6e-05,-0.00015,-6e-05,-1e-05,1e-05,-1e-05,-2e-05,1,1.0
2391,-1e-05,-6e-05,-0.00015,-6e-05,-1e-05,1e-05,-1e-05,-2e-05,1,1.0
2392,-1e-05,-6e-05,-0.00015,-6e-05,-1e-05,1e-05,-1e-05,-2e-05,1,1.0
2393,-1e-05,-6e-05,-0.00015,-6e-05,-1e-05,1e-05,-1e-05,-2e-05,1,1.0
2394,-1e-05,-6e-05,-0.00015,-6e-05,-1e-05,1e-05,-1e-05,-2e-05,1,1.0
2395,2e-05,1e-05,0.00011,1e-05,1e-05,2e-05,-1e-05,-1e-05,1,1.0
2396,-1e-05,-1e-05,0.00012,5e-05,-4e-05,-2e-05,-1e-05,1e-05,1,1.0
2397,-1e-05,-1e-05,0.00012,5e-05,-4e-05,-2e-05,-1e-05,1e-05,1,1.0
2398,-1e-05,-1e-05,0.00012,5e-05,-4e-05,-2e-05,-1e-05,1e-05,1,1.0
2399,-1e-05,-1e-05,0.00012,5e-05,-4e-05,-2e-05,-1e-05,1e-05,1,1.0
2400,-1e-05,-1e-05,0.00012,5e-05,-4e-05,-2e-05,-1e-05,1e-05,1,1.0
2401,-1e-05,-1e-05,0.00012,5e-05,-4e-05,-2e-05,-1e-05,1e-05,1,1.0
2402,-1e-05,-1e-05,0.00012,5e-05,-4e-05,-2e-05,-1e-05,1e-05,1,1.0
2403,-1e-05,-1e-05,0.00012,5e-05,-4e-05,-2e-05,-1e-05,1e-05,1,1.0
2404,-1e-05,-1e-05,0.00012,5e-05,-4e-05,-2e-05,-1e-05,1e-05,1,1.0
2405,-1e-05,-1e-05,0.00012,5e-05,-4e-05,-2e-05,-1e-05,1e-05,1,1.0
2406,-1e-05,-1e-05,0.00012,5e-05,-4e-05,-2e-05,-1e-05,1e-05,1,1.0
2407,-1e-05,-1e-05,0.00012,5e-05,-4e-05,-2e-05,-1e-05,1e-05,1,1.0
2408,-1e-05,-1e-05,0.00012,5e-05,-4e-05,-2e-05,-1e-05,1e-05,1,1.0
2409,-2e-05,-1e-05,-5e-05,-3e-05,-1e-05,-3e-05,-1e-05,-3e-05,1,1.0
2410,-2e-05,-1e-05,-5e-05,-3e-05,-1e-05,-3e-05,-1e-05,-3e-05,1,1.0
2411,-2e-05,-1e-05,-5e-05,-3e-05,-1e-05,-3e-05,-1e-05,-3e-05,1,1.0
2412,-2e-05,-1e-05,-5e-05,-3e-05,-1e-05,-3e-05,-1e-05,-3e-05,1,1.0
2413,-2e-05,-1e-05,-5e-05,-3e-05,-1e-05,-3e-05,-1e-05,-3e-05,1,1.0
2414,-2e-05,-1e-05,-5e-05,-3e-05,-1e-05,-3e-05,-1e-05,-3e-05,1,1.0
2415,-2e-05,-1e-05,-5e-05,-3e-05,-1e-05,-3e-05,-1e-05,-3e-05,1,1.0
2416,-2e-05,-1e-05,-5e-05,-3e-05,-1e-05,-3e-05,-1e-05,-3e-05,1,1.0
2417,0.0,3e-05,5e-05,-1e-05,-1e-05,2e-05,0.0,1e-05,1,1.0
2418,0.0,3e-05,5e-05,-1e-05,-1e-05,2e-05,0.0,1e-05,1,1.0
2419,0.0,3e-05,5e-05,-1e-05,-1e-05,2e-05,0.0,1e-05,1,1.0
2420,0.0,3e-05,5e-05,-1e-05,-1e-05,2e-05,0.0,1e-05,1,1.0
2421,0.0,3e-05,5e-05,-1e-05,-1e-05,2e-05,0.0,1e-05,1,1.0
2422,0.0,3e-05,5e-05,-1e-05,-1e-05,2e-05,0.0,1e-05,1,1.0
2423,0.0,3e-05,5e-05,-1e-05,-1e-05,2e-05,0.0,1e-05,1,1.0
2424,0.0,3e-05,5e-05,-1e-05,-1e-05,2e-05,0.0,1e-05,1,1.0
2425,0.0,3e-05,5e-05,-1e-05,-1e-05,2e-05,0.0,1e-05,1,1.0
2426,0.0,3e-05,5e-05,-1e-05,-1e-05,2e-05,0.0,1e-05,1,1.0
2427,0.0,3e-05,5e-05,-1e-05,-1e-05,2e-05,0.0,1e-05,1,1.0
2428,0.0,3e-05,5e-05,-1e-05,-1e-05,2e-05,0.0,1e-05,1,1.0
2429,0.0,3e-05,5e-05,-1e-05,-1e-05,2e-05,0.0,1e-05,1,1.0
2430,0.0,3e-05,5e-05,-1e-05,-1e-05,2e-05,0.0,1e-05,1,1.0
2431,0.0,3e-05,5e-05,-1e-05,-1e-05,2e-05,0.0,1e-05,1,1.0
2432,-2e-05,-3e-05,-1e-05,-2e-05,-4e-05,0.0,2e-05,0.0,1,1.0
2433,-2e-05,1e-05,2e-05,-4e-05,-1e-05,-1e-05,-2e-05,-2e-05,1,1.0
2434,-2e-05,1e-05,2e-05,-4e-05,-1e-05,-1e-05,-2e-05,-2e-05,1,1.0
2435,-2e-05,1e-05,2e-05,-4e-05,-1e-05,-1e-05,-2e-05,-2e-05,1,1.0
2436,-2e-05,1e-05,2e-05,-4e-05,-1e-05,-1e-05,-2e-05,-2e-05,1,1.0
2439,-2e-05,1e-05,2e-05,-4e-05,-1e-05,-1e-05,-2e-05,-2e-05,1,1.0
2440,-2e-05,1e-05,2e-05,-4e-05,-1e-05,-1e-05,-2e-05,-2e-05,1,1.0
2441,-2e-05,1e-05,2e-05,-4e-05,-1e-05,-1e-05,-2e-05,-2e-05,1,1.0
2442,-2e-05,1e-05,2e-05,-4e-05,-1e-05,-1e-05,-2e-05,-2e-05,1,1.0
2443,-2e-05,1e-05,2e-05,-4e-05,-1e-05,-1e-05,-2e-05,-2e-05,1,1.0
2444,-2e-05,1e-05,2e-05,-4e-05,-1e-05,-1e-05,-2e-05,-2e-05,1,1.0
2445,-2e-05,1e-05,2e-05,-4e-05,-1e-05,-1e-05,-2e-05,-2e-05,1,1.0
2446,-2e-05,1e-05,2e-05,-4e-05,-1e-05,-1e-05,-2e-05,-2e-05,1,1.0
2447,-2e-05,1e-05,2e-05,-4e-05,-1e-05,-1e-05,-2e-05,-2e-05,1,1.0
2448,-2e-05,1e-05,2e-05,-4e-05,-1e-05,-1e-05,-2e-05,-2e-05,1,1.0
2449,-2e-05,1e-05,2e-05,-4e-05,-1e-05,-1e-05,-2e-05,-2e-05,1,1.0
2450,-2e-05,1e-05,2e-05,-4e-05,-1e-05,-1e-05,-2e-05,-2e-05,1,1.0
2451,-2e-05,1e-05,2e-05,-4e-05,-1e-05,-1e-05,-2e-05,-2e-05,1,1.0
2452,-2e-05,1e-05,2e-05,-4e-05,-1e-05,-1e-05,-2e-05,-2e-05,1,1.0
2453,-2e-05,1e-05,2e-05,-4e-05,-1e-05,-1e-05,-2e-05,-2e-05,1,1.0
2454,2e-05,1e-05,7e-05,1e-05,0.0,1e-05,-4e-05,1e-05,1,1.0
2455,-1e-05,-4e-05,-5e-05,-6e-05,-2e-05,-4e-05,-4e-05,-3e-05,1,1.0
2456,-1e-05,-4e-05,-5e-05,-6e-05,-2e-05,-4e-05,-4e-05,-3e-05,1,1.0
2457,-1e-05,-4e-05,-5e-05,-6e-05,-2e-05,-4e-05,-4e-05,-3e-05,1,1.0
2458,-1e-05,-4e-05,-5e-05,-6e-05,-2e-05,-4e-05,-4e-05,-3e-05,1,1.0
2459,-1e-05,-4e-05,-5e-05,-6e-05,-2e-05,-4e-05,-4e-05,-3e-05,1,1.0
2460,-1e-05,-4e-05,-5e-05,-6e-05,-2e-05,-4e-05,-4e-05,-3e-05,1,1.0
2461,-1e-05,-4e-05,-5e-05,-6e-05,-2e-05,-4e-05,-4e-05,-3e-05,1,1.0
2462,-1e-05,-4e-05,-5e-05,-6e-05,-2e-05,-4e-05,-4e-05,-3e-05,1,1.0
2463,-1e-05,-4e-05,-5e-05,-6e-05,-2e-05,-4e-05,-4e-05,-3e-05,1,1.0
2464,-1e-05,-4e-05,-5e-05,-6e-05,-2e-05,-4e-05,-4e-05,-3e-05,1,1.0
2465,-1e-05,-4e-05,-5e-05,-6e-05,-2e-05,-4e-05,-4e-05,-3e-05,1,1.0
2466,-1e-05,-4e-05,-5e-05,-6e-05,-2e-05,-4e-05,-4e-05,-3e-05,1,1.0
2467,-1e-05,-4e-05,-5e-05,-6e-05,-2e-05,-4e-05,-4e-05,-3e-05,1,1.0
2468,-1e-05,-4e-05,-5e-05,-6e-05,-2e-05,-4e-05,-4e-05,-3e-05,1,1.0
2469,-1e-05,-4e-05,-5e-05,-6e-05,-2e-05,-4e-05,-4e-05,-3e-05,1,1.0
2470,-1e-05,-2e-05,0.0,-1e-05,2e-05,0.0,1e-05,-1e-05,1,1.0
2471,-1e-05,-2e-05,0.0,-1e-05,2e-05,0.0,1e-05,-1e-05,1,1.0
2472,-1e-05,-2e-05,0.0,-1e-05,2e-05,0.0,1e-05,-1e-05,1,1.0
2473,-1e-05,-2e-05,0.0,-1e-05,2e-05,0.0,1e-05,-1e-05,1,1.0
2474,-1e-05,-2e-05,0.0,-1e-05,2e-05,0.0,1e-05,-1e-05,1,1.0
2475,-1e-05,-2e-05,0.0,-1e-05,2e-05,0.0,1e-05,-1e-05,1,1.0
2476,-2e-05,4e-05,0.00017,7e-05,1e-05,-1e-05,1e-05,-3e-05,1,1.0
2477,-2e-05,4e-05,0.00017,7e-05,1e-05,-1e-05,1e-05,-3e-05,1,1.0
2478,-2e-05,4e-05,0.00017,7e-05,1e-05,-1e-05,1e-05,-3e-05,1,1.0
2479,-2e-05,4e-05,0.00017,7e-05,1e-05,-1e-05,1e-05,-3e-05,1,1.0
2480,-2e-05,4e-05,0.00017,7e-05,1e-05,-1e-05,1e-05,-3e-05,1,1.0
2481,-2e-05,4e-05,0.00017,7e-05,1e-05,-1e-05,1e-05,-3e-05,1,1.0
2482,-2e-05,4e-05,0.00017,7e-05,1e-05,-1e-05,1e-05,-3e-05,1,1.0
2483,-2e-05,4e-05,0.00017,7e-05,1e-05,-1e-05,1e-05,-3e-05,1,1.0
2484,-2e-05,4e-05,0.00017,7e-05,1e-05,-1e-05,1e-05,-3e-05,1,1.0
2485,-2e-05,4e-05,0.00017,7e-05,1e-05,-1e-05,1e-05,-3e-05,1,1.0
2486,-2e-05,4e-05,0.00017,7e-05,1e-05,-1e-05,1e-05,-3e-05,1,1.0
2488,-2e-05,4e-05,0.00017,7e-05,1e-05,-1e-05,1e-05,-3e-05,1,1.0
2489,-2e-05,4e-05,0.00017,7e-05,1e-05,-1e-05,1e-05,-3e-05,1,1.0
2490,-2e-05,4e-05,0.00017,7e-05,1e-05,-1e-05,1e-05,-3e-05,1,1.0
2491,-2e-05,4e-05,0.00017,7e-05,1e-05,-1e-05,1e-05,-3e-05,1,1.0
2492,-2e-05,4e-05,0.00017,7e-05,1e-05,-1e-05,1e-05,-3e-05,1,1.0
2493,-2e-05,4e-05,0.00017,7e-05,1e-05,-1e-05,1e-05,-3e-05,1,1.0
2494,-2e-05,4e-05,0.00017,7e-05,1e-05,-1e-05,1e-05,-3e-05,1,1.0
2495,-2e-05,4e-05,0.00017,7e-05,1e-05,-1e-05,1e-05,-3e-05,1,1.0
2496,-2e-05,4e-05,0.00017,7e-05,1e-05,-1e-05,1e-05,-3e-05,1,1.0
2497,-2e-05,4e-05,0.00017,7e-05,1e-05,-1e-05,1e-05,-3e-05,1,1.0
2498,-2e-05,4e-05,0.00017,7e-05,1e-05,-1e-05,1e-05,-3e-05,1,1.0
2499,-2e-05,4e-05,0.00017,7e-05,1e-05,-1e-05,1e-05,-3e-05,1,1.0
2500,-2e-05,3e-05,-2e-05,-4e-05,-1e-05,-2e-05,0.0,0.0,1,1.0
2501,-1e-05,-3e-05,-6e-05,0.0,0.0,-1e-05,-2e-05,1e-05,1,1.0
2502,-1e-05,-3e-05,-6e-05,0.0,0.0,-1e-05,-2e-05,1e-05,1,1.0
2503,-1e-05,-3e-05,-6e-05,0.0,0.0,-1e-05,-2e-05,1e-05,1,1.0
2504,-1e-05,-3e-05,-6e-05,0.0,0.0,-1e-05,-2e-05,1e-05,1,1.0
2505,-1e-05,-3e-05,-6e-05,0.0,0.0,-1e-05,-2e-05,1e-05,1,1.0
2506,-1e-05,-3e-05,-6e-05,0.0,0.0,-1e-05,-2e-05,1e-05,1,1.0
2507,-1e-05,-3e-05,-6e-05,0.0,0.0,-1e-05,-2e-05,1e-05,1,1.0
2508,-1e-05,-3e-05,-6e-05,0.0,0.0,-1e-05,-2e-05,1e-05,1,1.0
2509,-1e-05,-3e-05,-6e-05,0.0,0.0,-1e-05,-2e-05,1e-05,1,1.0
2510,-1e-05,-3e-05,-6e-05,0.0,0.0,-1e-05,-2e-05,1e-05,1,1.0
2511,-1e-05,-3e-05,-6e-05,0.0,0.0,-1e-05,-2e-05,1e-05,1,1.0
2512,-1e-05,-3e-05,-6e-05,0.0,0.0,-1e-05,-2e-05,1e-05,1,1.0
2513,-1e-05,-3e-05,-6e-05,0.0,0.0,-1e-05,-2e-05,1e-05,1,1.0
2514,0.0,3e-05,1e-05,1e-05,-1e-05,1e-05,0.0,0.0,1,1.0
2515,-2e-05,1e-05,9e-05,6e-05,-1e-05,-1e-05,-1e-05,-2e-05,1,1.0
2516,-2e-05,1e-05,9e-05,6e-05,-1e-05,-1e-05,-1e-05,-2e-05,1,1.0
2517,-2e-05,1e-05,9e-05,6e-05,-1e-05,-1e-05,-1e-05,-2e-05,1,1.0
2518,-2e-05,1e-05,9e-05,6e-05,-1e-05,-1e-05,-1e-05,-2e-05,1,1.0
2519,-2e-05,1e-05,9e-05,6e-05,-1e-05,-1e-05,-1e-05,-2e-05,1,1.0
2520,-2e-05,1e-05,9e-05,6e-05,-1e-05,-1e-05,-1e-05,-2e-05,1,1.0
2521,-2e-05,1e-05,9e-05,6e-05,-1e-05,-1e-05,-1e-05,-2e-05,1,1.0
2522,-2e-05,1e-05,9e-05,6e-05,-1e-05,-1e-05,-1e-05,-2e-05,1,1.0
2523,-2e-05,1e-05,9e-05,6e-05,-1e-05,-1e-05,-1e-05,-2e-05,1,1.0
2524,-2e-05,1e-05,9e-05,6e-05,-1e-05,-1e-05,-1e-05,-2e-05,1,1.0
2525,-2e-05,1e-05,9e-05,6e-05,-1e-05,-1e-05,-1e-05,-2e-05,1,1.0
2526,-2e-05,1e-05,9e-05,6e-05,-1e-05,-1e-05,-1e-05,-2e-05,1,1.0
2527,-2e-05,1e-05,9e-05,6e-05,-1e-05,-1e-05,-1e-05,-2e-05,1,1.0
2528,-2e-05,1e-05,9e-05,6e-05,-1e-05,-1e-05,-1e-05,-2e-05,1,1.0
2530,-2e-05,-8e-05,-4e-05,-9e-05,-3e-05,-4e-05,-1e-05,0.0,1,1.0
2531,-2e-05,-8e-05,-4e-05,-9e-05,-3e-05,-4e-05,-1e-05,0.0,1,1.0
2532,-2e-05,-8e-05,-4e-05,-9e-05,-3e-05,-4e-05,-1e-05,0.0,1,1.0
2533,-2e-05,-8e-05,-4e-05,-9e-05,-3e-05,-4e-05,-1e-05,0.0,1,1.0
2534,-2e-05,-8e-05,-4e-05,-9e-05,-3e-05,-4e-05,-1e-05,0.0,1,1.0
2535,-2e-05,-8e-05,-4e-05,-9e-05,-3e-05,-4e-05,-1e-05,0.0,1,1.0
2536,-2e-05,-8e-05,-4e-05,-9e-05,-3e-05,-4e-05,-1e-05,0.0,1,1.0
2539,2e-05,6e-05,0.00017,2e-05,-1e-05,1e-05,1e-05,-1e-05,1,1.0
2540,2e-05,6e-05,0.00017,2e-05,-1e-05,1e-05,1e-05,-1e-05,1,1.0
2541,2e-05,6e-05,0.00017,2e-05,-1e-05,1e-05,1e-05,-1e-05,1,1.0
2542,2e-05,6e-05,0.00017,2e-05,-1e-05,1e-05,1e-05,-1e-05,1,1.0
2543,2e-05,6e-05,0.00017,2e-05,-1e-05,1e-05,1e-05,-1e-05,1,1.0
2544,2e-05,6e-05,0.00017,2e-05,-1e-05,1e-05,1e-05,-1e-05,1,1.0
2545,2e-05,6e-05,0.00017,2e-05,-1e-05,1e-05,1e-05,-1e-05,1,1.0
2546,2e-05,6e-05,0.00017,2e-05,-1e-05,1e-05,1e-05,-1e-05,1,1.0
2547,2e-05,6e-05,0.00017,2e-05,-1e-05,1e-05,1e-05,-1e-05,1,1.0
2548,2e-05,6e-05,0.00017,2e-05,-1e-05,1e-05,1e-05,-1e-05,1,1.0
2549,2e-05,6e-05,0.00017,2e-05,-1e-05,1e-05,1e-05,-1e-05,1,1.0
2550,2e-05,6e-05,0.00017,2e-05,-1e-05,1e-05,1e-05,-1e-05,1,1.0
2551,2e-05,6e-05,0.00017,2e-05,-1e-05,1e-05,1e-05,-1e-05,1,1.0
2552,2e-05,6e-05,0.00017,2e-05,-1e-05,1e-05,1e-05,-1e-05,1,1.0
2553,2e-05,6e-05,0.00017,2e-05,-1e-05,1e-05,1e-05,-1e-05,1,1.0
2554,2e-05,6e-05,0.00017,2e-05,-1e-05,1e-05,1e-05,-1e-05,1,1.0
2555,2e-05,6e-05,0.00017,2e-05,-1e-05,1e-05,1e-05,-1e-05,1,1.0
2556,2e-05,6e-05,0.00017,2e-05,-1e-05,1e-05,1e-05,-1e-05,1,1.0
2557,2e-05,6e-05,0.00017,2e-05,-1e-05,1e-05,1e-05,-1e-05,1,1.0
2558,2e-05,6e-05,0.00017,2e-05,-1e-05,1e-05,1e-05,-1e-05,1,1.0
2559,-2e-05,1e-05,0.00015,0.0,0.0,-2e-05,0.0,0.0,1,1.0
2560,1e-05,2e-05,7e-05,1e-05,2e-05,0.0,0.0,-2e-05,1,1.0
2561,1e-05,2e-05,7e-05,1e-05,2e-05,0.0,0.0,-2e-05,1,1.0
2562,1e-05,2e-05,7e-05,1e-05,2e-05,0.0,0.0,-2e-05,1,1.0
2563,1e-05,2e-05,7e-05,1e-05,2e-05,0.0,0.0,-2e-05,1,1.0
2564,1e-05,2e-05,7e-05,1e-05,2e-05,0.0,0.0,-2e-05,1,1.0
2565,1e-05,2e-05,7e-05,1e-05,2e-05,0.0,0.0,-2e-05,1,1.0
2566,1e-05,2e-05,7e-05,1e-05,2e-05,0.0,0.0,-2e-05,1,1.0
2567,1e-05,2e-05,7e-05,1e-05,2e-05,0.0,0.0,-2e-05,1,1.0
2568,1e-05,2e-05,7e-05,1e-05,2e-05,0.0,0.0,-2e-05,1,1.0
2569,1e-05,2e-05,7e-05,1e-05,2e-05,0.0,0.0,-2e-05,1,1.0
2570,1e-05,2e-05,7e-05,1e-05,2e-05,0.0,0.0,-2e-05,1,1.0
2571,1e-05,2e-05,7e-05,1e-05,2e-05,0.0,0.0,-2e-05,1,1.0
2572,1e-05,2e-05,7e-05,1e-05,2e-05,0.0,0.0,-2e-05,1,1.0
2573,1e-05,2e-05,7e-05,1e-05,2e-05,0.0,0.0,-2e-05,1,1.0
2574,0.0,2e-05,-2e-05,-1e-05,-2e-05,2e-05,3e-05,2e-05,1,1.0
2575,-3e-05,-3e-05,-6e-05,0.0,-2e-05,-1e-05,0.0,-1e-05,1,1.0
2576,-3e-05,-3e-05,-6e-05,0.0,-2e-05,-1e-05,0.0,-1e-05,1,1.0
2577,-3e-05,-3e-05,-6e-05,0.0,-2e-05,-1e-05,0.0,-1e-05,1,1.0
2578,-3e-05,-3e-05,-6e-05,0.0,-2e-05,-1e-05,0.0,-1e-05,1,1.0
2579,-3e-05,-3e-05,-6e-05,0.0,-2e-05,-1e-05,0.0,-1e-05,1,1.0
2580,-3e-05,-3e-05,-6e-05,0.0,-2e-05,-1e-05,0.0,-1e-05,1,1.0
2581,-3e-05,-3e-05,-6e-05,0.0,-2e-05,-1e-05,0.0,-1e-05,1,1.0
2582,-3e-05,-3e-05,-6e-05,0.0,-2e-05,-1e-05,0.0,-1e-05,1,1.0
2583,-3e-05,-3e-05,-6e-05,0.0,-2e-05,-1e-05,0.0,-1e-05,1,1.0
2584,-3e-05,-3e-05,-6e-05,0.0,-2e-05,-1e-05,0.0,-1e-05,1,1.0
2585,-3e-05,-3e-05,-6e-05,0.0,-2e-05,-1e-05,0.0,-1e-05,1,1.0
2586,-3e-05,-3e-05,-6e-05,0.0,-2e-05,-1e-05,0.0,-1e-05,1,1.0
2589,0.0,0.0,0.00013,-3e-05,1e-05,0.0,-3e-05,-2e-05,1,1.0
2590,0.0,-1e-05,-9e-05,2e-05,1e-05,0.0,-3e-05,-1e-05,1,1.0
2591,0.0,-1e-05,-9e-05,2e-05,1e-05,0.0,-3e-05,-1e-05,1,1.0
2592,0.0,-1e-05,-9e-05,2e-05,1e-05,0.0,-3e-05,-1e-05,1,1.0
2593,0.0,-1e-05,-9e-05,2e-05,1e-05,0.0,-3e-05,-1e-05,1,1.0
2595,0.0,-1e-05,-9e-05,2e-05,1e-05,0.0,-3e-05,-1e-05,1,1.0
2596,-2e-05,2e-05,2e-05,-2e-05,1e-05,-2e-05,-1e-05,-1e-05,1,1.0
2597,-2e-05,2e-05,2e-05,-2e-05,1e-05,-2e-05,-1e-05,-1e-05,1,1.0
2598,-2e-05,2e-05,2e-05,-2e-05,1e-05,-2e-05,-1e-05,-1e-05,1,1.0
2599,-2e-05,2e-05,2e-05,-2e-05,1e-05,-2e-05,-1e-05,-1e-05,1,1.0
2600,-2e-05,2e-05,2e-05,-2e-05,1e-05,-2e-05,-1e-05,-1e-05,1,1.0
2601,-2e-05,2e-05,2e-05,-2e-05,1e-05,-2e-05,-1e-05,-1e-05,1,1.0
2602,-2e-05,2e-05,2e-05,-2e-05,1e-05,-2e-05,-1e-05,-1e-05,1,1.0
2603,-2e-05,2e-05,2e-05,-2e-05,1e-05,-2e-05,-1e-05,-1e-05,1,1.0
2604,-2e-05,2e-05,2e-05,-2e-05,1e-05,-2e-05,-1e-05,-1e-05,1,1.0
2605,-2e-05,2e-05,2e-05,-2e-05,1e-05,-2e-05,-1e-05,-1e-05,1,1.0
2606,-2e-05,2e-05,2e-05,-2e-05,1e-05,-2e-05,-1e-05,-1e-05,1,1.0
2607,-2e-05,2e-05,2e-05,-2e-05,1e-05,-2e-05,-1e-05,-1e-05,1,1.0
2608,-2e-05,2e-05,2e-05,-2e-05,1e-05,-2e-05,-1e-05,-1e-05,1,1.0
2609,-2e-05,2e-05,2e-05,-2e-05,1e-05,-2e-05,-1e-05,-1e-05,1,1.0
2610,-2e-05,2e-05,2e-05,-2e-05,1e-05,-2e-05,-1e-05,-1e-05,1,1.0
2611,0.0,3e-05,9e-05,4e-05,1e-05,0.0,-1e-05,0.0,1,1.0
2612,0.0,3e-05,9e-05,4e-05,1e-05,0.0,-1e-05,0.0,1,1.0
2613,0.0,-5e-05,-0.00012,-3e-05,-2e-05,-2e-05,-2e-05,-1e-05,1,1.0
2614,0.0,-5e-05,-0.00012,-3e-05,-2e-05,-2e-05,-2e-05,-1e-05,1,1.0
2615,0.0,-5e-05,-0.00012,-3e-05,-2e-05,-2e-05,-2e-05,-1e-05,1,1.0
2616,0.0,-5e-05,-0.00012,-3e-05,-2e-05,-2e-05,-2e-05,-1e-05,1,1.0
2617,0.0,-5e-05,-0.00012,-3e-05,-2e-05,-2e-05,-2e-05,-1e-05,1,1.0
2618,0.0,-5e-05,-0.00012,-3e-05,-2e-05,-2e-05,-2e-05,-1e-05,1,1.0
2619,0.0,-5e-05,-0.00012,-3e-05,-2e-05,-2e-05,-2e-05,-1e-05,1,1.0
2620,0.0,-5e-05,-0.00012,-3e-05,-2e-05,-2e-05,-2e-05,-1e-05,1,1.0
2621,0.0,-5e-05,-0.00012,-3e-05,-2e-05,-2e-05,-2e-05,-1e-05,1,1.0
2622,0.0,-5e-05,-0.00012,-3e-05,-2e-05,-2e-05,-2e-05,-1e-05,1,1.0
2623,0.0,-5e-05,-0.00012,-3e-05,-2e-05,-2e-05,-2e-05,-1e-05,1,1.0
2624,0.0,-5e-05,-0.00012,-3e-05,-2e-05,-2e-05,-2e-05,-1e-05,1,1.0
2625,0.0,-5e-05,-0.00012,-3e-05,-2e-05,-2e-05,-2e-05,-1e-05,1,1.0
2626,0.0,-5e-05,-0.00012,-3e-05,-2e-05,-2e-05,-2e-05,-1e-05,1,1.0
2627,0.0,-5e-05,-0.00012,-3e-05,-2e-05,-2e-05,-2e-05,-1e-05,1,1.0
2628,0.0,-5e-05,-0.00012,-3e-05,-2e-05,-2e-05,-2e-05,-1e-05,1,1.0
2629,0.0,-5e-05,-0.00012,-3e-05,-2e-05,-2e-05,-2e-05,-1e-05,1,1.0
2630,0.0,-5e-05,-0.00012,-3e-05,-2e-05,-2e-05,-2e-05,-1e-05,1,1.0
2631,0.0,-5e-05,-0.00012,-3e-05,-2e-05,-2e-05,-2e-05,-1e-05,1,1.0
2632,0.0,-5e-05,-0.00012,-3e-05,-2e-05,-2e-05,-2e-05,-1e-05,1,1.0
2633,0.0,-5e-05,-0.00012,-3e-05,-2e-05,-2e-05,-2e-05,-1e-05,1,1.0
2634,-2e-05,-1e-05,-5e-05,-1e-05,-1e-05,0.0,2e-05,-1e-05,1,1.0
2635,1e-05,0.0,2e-05,0.0,-2e-05,1e-05,-1e-05,0.0,1,1.0
2636,1e-05,0.0,2e-05,0.0,-2e-05,1e-05,-1e-05,0.0,1,1.0
2639,1e-05,0.0,2e-05,0.0,-2e-05,1e-05,-1e-05,0.0,1,1.0
2640,1e-05,0.0,2e-05,0.0,-2e-05,1e-05,-1e-05,0.0,1,1.0
2641,1e-05,0.0,2e-05,0.0,-2e-05,1e-05,-1e-05,0.0,1,1.0
2642,1e-05,0.0,2e-05,0.0,-2e-05,1e-05,-1e-05,0.0,1,1.0
2643,1e-05,0.0,2e-05,0.0,-2e-05,1e-05,-1e-05,0.0,1,1.0
2644,1e-05,0.0,2e-05,0.0,-2e-05,1e-05,-1e-05,0.0,1,1.0
2645,1e-05,0.0,2e-05,0.0,-2e-05,1e-05,-1e-05,0.0,1,1.0
2646,1e-05,0.0,2e-05,0.0,-2e-05,1e-05,-1e-05,0.0,1,1.0
2647,1e-05,0.0,2e-05,0.0,-2e-05,1e-05,-1e-05,0.0,1,1.0
2648,-1e-05,2e-05,-1e-05,-2e-05,-3e-05,-2e-05,-2e-05,-1e-05,1,1.0
2649,-1e-05,2e-05,-1e-05,-2e-05,-3e-05,-2e-05,-2e-05,-1e-05,1,1.0
2650,-1e-05,2e-05,-1e-05,-2e-05,-3e-05,-2e-05,-2e-05,-1e-05,1,1.0
2651,-1e-05,2e-05,-1e-05,-2e-05,-3e-05,-2e-05,-2e-05,-1e-05,1,1.0
2652,-1e-05,2e-05,-1e-05,-2e-05,-3e-05,-2e-05,-2e-05,-1e-05,1,1.0
2653,-1e-05,2e-05,-1e-05,-2e-05,-3e-05,-2e-05,-2e-05,-1e-05,1,1.0
2654,-1e-05,2e-05,-1e-05,-2e-05,-3e-05,-2e-05,-2e-05,-1e-05,1,1.0
2655,-1e-05,2e-05,-1e-05,-2e-05,-3e-05,-2e-05,-2e-05,-1e-05,1,1.0
2656,-2e-05,-4e-05,-1e-05,0.0,-1e-05,0.0,0.0,1e-05,1,1.0
2657,-2e-05,-4e-05,-1e-05,0.0,-1e-05,0.0,0.0,1e-05,1,1.0
2658,-2e-05,-4e-05,-1e-05,0.0,-1e-05,0.0,0.0,1e-05,1,1.0
2659,-2e-05,-4e-05,-1e-05,0.0,-1e-05,0.0,0.0,1e-05,1,1.0
2660,-2e-05,-4e-05,-1e-05,0.0,-1e-05,0.0,0.0,1e-05,1,1.0
2661,-2e-05,-4e-05,-1e-05,0.0,-1e-05,0.0,0.0,1e-05,1,1.0
2662,-2e-05,-4e-05,-1e-05,0.0,-1e-05,0.0,0.0,1e-05,1,1.0
2663,-2e-05,-4e-05,-1e-05,0.0,-1e-05,0.0,0.0,1e-05,1,1.0
2664,-2e-05,-4e-05,-1e-05,0.0,-1e-05,0.0,0.0,1e-05,1,1.0
2665,-2e-05,-4e-05,-1e-05,0.0,-1e-05,0.0,0.0,1e-05,1,1.0
2666,-2e-05,-4e-05,-1e-05,0.0,-1e-05,0.0,0.0,1e-05,1,1.0
2667,-2e-05,-4e-05,-1e-05,0.0,-1e-05,0.0,0.0,1e-05,1,1.0
2668,-2e-05,-4e-05,-1e-05,0.0,-1e-05,0.0,0.0,1e-05,1,1.0
2669,-2e-05,-4e-05,-1e-05,0.0,-1e-05,0.0,0.0,1e-05,1,1.0
2670,-2e-05,-4e-05,-1e-05,0.0,-1e-05,0.0,0.0,1e-05,1,1.0
2671,2e-05,4e-05,0.00023,3e-05,-4e-05,0.0,-3e-05,-2e-05,1,1.0
2672,0.0,-5e-05,-0.00024,-8e-05,-3e-05,-1e-05,-3e-05,-1e-05,1,1.0
2673,0.0,-5e-05,-0.00024,-8e-05,-3e-05,-1e-05,-3e-05,-1e-05,1,1.0
2674,0.0,-5e-05,-0.00024,-8e-05,-3e-05,-1e-05,-3e-05,-1e-05,1,1.0
2675,0.0,-5e-05,-0.00024,-8e-05,-3e-05,-1e-05,-3e-05,-1e-05,1,1.0
2676,0.0,-5e-05,-0.00024,-8e-05,-3e-05,-1e-05,-3e-05,-1e-05,1,1.0
2677,0.0,-5e-05,-0.00024,-8e-05,-3e-05,-1e-05,-3e-05,-1e-05,1,1.0
2678,0.0,-5e-05,-0.00024,-8e-05,-3e-05,-1e-05,-3e-05,-1e-05,1,1.0
2680,0.0,-5e-05,-0.00024,-8e-05,-3e-05,-1e-05,-3e-05,-1e-05,1,1.0
2681,0.0,-5e-05,-0.00024,-8e-05,-3e-05,-1e-05,-3e-05,-1e-05,1,1.0
2682,0.0,-5e-05,-0.00024,-8e-05,-3e-05,-1e-05,-3e-05,-1e-05,1,1.0
2683,0.0,-5e-05,-0.00024,-8e-05,-3e-05,-1e-05,-3e-05,-1e-05,1,1.0
2684,0.0,-5e-05,-0.00024,-8e-05,-3e-05,-1e-05,-3e-05,-1e-05,1,1.0
2685,0.0,-5e-05,-0.00024,-8e-05,-3e-05,-1e-05,-3e-05,-1e-05,1,1.0
2686,0.0,-5e-05,-0.00024,-8e-05,-3e-05,-1e-05,-3e-05,-1e-05,1,1.0
2689,0.0,-5e-05,-0.00024,-8e-05,-3e-05,-1e-05,-3e-05,-1e-05,1,1.0
2690,0.0,-5e-05,-0.00024,-8e-05,-3e-05,-1e-05,-3e-05,-1e-05,1,1.0
2691,0.0,-5e-05,-0.00024,-8e-05,-3e-05,-1e-05,-3e-05,-1e-05,1,1.0
2692,0.0,-5e-05,-0.00024,-8e-05,-3e-05,-1e-05,-3e-05,-1e-05,1,1.0
2693,0.0,-5e-05,-0.00024,-8e-05,-3e-05,-1e-05,-3e-05,-1e-05,1,1.0
2694,-2e-05,1e-05,3e-05,0.0,-1e-05,-3e-05,0.0,-2e-05,1,1.0
2695,1e-05,-1e-05,7e-05,3e-05,-1e-05,-2e-05,1e-05,-1e-05,1,1.0
2696,1e-05,-1e-05,7e-05,3e-05,-1e-05,-2e-05,1e-05,-1e-05,1,1.0
2697,1e-05,-1e-05,7e-05,3e-05,-1e-05,-2e-05,1e-05,-1e-05,1,1.0
2698,1e-05,-1e-05,7e-05,3e-05,-1e-05,-2e-05,1e-05,-1e-05,1,1.0
2699,1e-05,-1e-05,7e-05,3e-05,-1e-05,-2e-05,1e-05,-1e-05,1,1.0
2700,1e-05,-1e-05,7e-05,3e-05,-1e-05,-2e-05,1e-05,-1e-05,1,1.0
2701,1e-05,-1e-05,7e-05,3e-05,-1e-05,-2e-05,1e-05,-1e-05,1,1.0
2702,1e-05,-1e-05,7e-05,3e-05,-1e-05,-2e-05,1e-05,-1e-05,1,1.0
2703,1e-05,-1e-05,7e-05,3e-05,-1e-05,-2e-05,1e-05,-1e-05,1,1.0
2704,1e-05,-1e-05,7e-05,3e-05,-1e-05,-2e-05,1e-05,-1e-05,1,1.0
2705,1e-05,-1e-05,7e-05,3e-05,-1e-05,-2e-05,1e-05,-1e-05,1,1.0
2706,1e-05,-1e-05,7e-05,3e-05,-1e-05,-2e-05,1e-05,-1e-05,1,1.0
2707,1e-05,-1e-05,7e-05,3e-05,-1e-05,-2e-05,1e-05,-1e-05,1,1.0
2708,0.0,1e-05,-0.0001,-3e-05,0.0,-3e-05,-4e-05,-1e-05,1,1.0
2709,0.0,1e-05,-0.0001,-3e-05,0.0,-3e-05,-4e-05,-1e-05,1,1.0
2710,0.0,1e-05,-0.0001,-3e-05,0.0,-3e-05,-4e-05,-1e-05,1,1.0
2711,0.0,1e-05,-0.0001,-3e-05,0.0,-3e-05,-4e-05,-1e-05,1,1.0
2712,0.0,1e-05,-0.0001,-3e-05,0.0,-3e-05,-4e-05,-1e-05,1,1.0
2713,0.0,1e-05,-0.0001,-3e-05,0.0,-3e-05,-4e-05,-1e-05,1,1.0
2714,0.0,1e-05,-0.0001,-3e-05,0.0,-3e-05,-4e-05,-1e-05,1,1.0
2715,0.0,1e-05,-0.0001,-3e-05,0.0,-3e-05,-4e-05,-1e-05,1,1.0
2716,-2e-05,-2e-05,-2e-05,3e-05,0.0,-2e-05,-1e-05,-2e-05,1,1.0
2717,-2e-05,-2e-05,-2e-05,3e-05,0.0,-2e-05,-1e-05,-2e-05,1,1.0
2718,-2e-05,-2e-05,-2e-05,3e-05,0.0,-2e-05,-1e-05,-2e-05,1,1.0
2719,-2e-05,-2e-05,-2e-05,3e-05,0.0,-2e-05,-1e-05,-2e-05,1,1.0
2720,-2e-05,-2e-05,-2e-05,3e-05,0.0,-2e-05,-1e-05,-2e-05,1,1.0
2721,-2e-05,-2e-05,-2e-05,3e-05,0.0,-2e-05,-1e-05,-2e-05,1,1.0
2722,-2e-05,-2e-05,-2e-05,3e-05,0.0,-2e-05,-1e-05,-2e-05,1,1.0
2723,-2e-05,-2e-05,-2e-05,3e-05,0.0,-2e-05,-1e-05,-2e-05,1,1.0
2724,-2e-05,-2e-05,-2e-05,3e-05,0.0,-2e-05,-1e-05,-2e-05,1,1.0
2725,-2e-05,-2e-05,-2e-05,3e-05,0.0,-2e-05,-1e-05,-2e-05,1,1.0
2726,-2e-05,-2e-05,-2e-05,3e-05,0.0,-2e-05,-1e-05,-2e-05,1,1.0
2727,-2e-05,-2e-05,-2e-05,3e-05,0.0,-2e-05,-1e-05,-2e-05,1,1.0
2728,-2e-05,-2e-05,-2e-05,3e-05,0.0,-2e-05,-1e-05,-2e-05,1,1.0
2729,-2e-05,-2e-05,-2e-05,3e-05,0.0,-2e-05,-1e-05,-2e-05,1,1.0
2730,-2e-05,-2e-05,-2e-05,3e-05,0.0,-2e-05,-1e-05,-2e-05,1,1.0
2731,0.0,-1e-05,7e-05,2e-05,1e-05,-2e-05,-1e-05,-3e-05,1,1.0
2732,-1e-05,1e-05,-8e-05,0.0,-1e-05,-1e-05,-2e-05,1e-05,1,1.0
2733,-1e-05,1e-05,-8e-05,0.0,-1e-05,-1e-05,-2e-05,1e-05,1,1.0
2734,-1e-05,1e-05,-8e-05,0.0,-1e-05,-1e-05,-2e-05,1e-05,1,1.0
2735,-1e-05,1e-05,-8e-05,0.0,-1e-05,-1e-05,-2e-05,1e-05,1,1.0
2736,-1e-05,1e-05,-8e-05,0.0,-1e-05,-1e-05,-2e-05,1e-05,1,1.0
2739,-1e-05,1e-05,-8e-05,0.0,-1e-05,-1e-05,-2e-05,1e-05,1,1.0
2740,-1e-05,1e-05,-8e-05,0.0,-1e-05,-1e-05,-2e-05,1e-05,1,1.0
2741,-1e-05,1e-05,-8e-05,0.0,-1e-05,-1e-05,-2e-05,1e-05,1,1.0
2742,-1e-05,1e-05,-8e-05,0.0,-1e-05,-1e-05,-2e-05,1e-05,1,1.0
2743,-1e-05,1e-05,-8e-05,0.0,-1e-05,-1e-05,-2e-05,1e-05,1,1.0
2744,-1e-05,1e-05,-8e-05,0.0,-1e-05,-1e-05,-2e-05,1e-05,1,1.0
2745,-1e-05,1e-05,-8e-05,0.0,-1e-05,-1e-05,-2e-05,1e-05,1,1.0
2747,-1e-05,1e-05,-8e-05,0.0,-1e-05,-1e-05,-2e-05,1e-05,1,1.0
2748,-1e-05,1e-05,-8e-05,0.0,-1e-05,-1e-05,-2e-05,1e-05,1,1.0
2749,-1e-05,1e-05,-8e-05,0.0,-1e-05,-1e-05,-2e-05,1e-05,1,1.0
2750,-1e-05,1e-05,-8e-05,0.0,-1e-05,-1e-05,-2e-05,1e-05,1,1.0
2751,-1e-05,1e-05,-8e-05,0.0,-1e-05,-1e-05,-2e-05,1e-05,1,1.0
2752,-1e-05,1e-05,-8e-05,0.0,-1e-05,-1e-05,-2e-05,1e-05,1,1.0
2753,-1e-05,1e-05,-8e-05,0.0,-1e-05,-1e-05,-2e-05,1e-05,1,1.0
2754,-1e-05,1e-05,3e-05,0.0,1e-05,0.0,-1e-05,-1e-05,1,1.0
2755,-1e-05,-3e-05,8e-05,2e-05,-2e-05,0.0,-1e-05,0.0,1,1.0
2756,-1e-05,-3e-05,8e-05,2e-05,-2e-05,0.0,-1e-05,0.0,1,1.0
2757,-1e-05,-3e-05,8e-05,2e-05,-2e-05,0.0,-1e-05,0.0,1,1.0
2758,-1e-05,-3e-05,8e-05,2e-05,-2e-05,0.0,-1e-05,0.0,1,1.0
2759,-1e-05,-3e-05,8e-05,2e-05,-2e-05,0.0,-1e-05,0.0,1,1.0
2760,-1e-05,-3e-05,8e-05,2e-05,-2e-05,0.0,-1e-05,0.0,1,1.0
2761,-1e-05,-3e-05,8e-05,2e-05,-2e-05,0.0,-1e-05,0.0,1,1.0
2762,-1e-05,-3e-05,8e-05,2e-05,-2e-05,0.0,-1e-05,0.0,1,1.0
2763,-1e-05,-3e-05,8e-05,2e-05,-2e-05,0.0,-1e-05,0.0,1,1.0
2764,-1e-05,-3e-05,8e-05,2e-05,-2e-05,0.0,-1e-05,0.0,1,1.0
2765,-1e-05,-3e-05,8e-05,2e-05,-2e-05,0.0,-1e-05,0.0,1,1.0
2766,-1e-05,-3e-05,8e-05,2e-05,-2e-05,0.0,-1e-05,0.0,1,1.0
2767,-1e-05,-3e-05,8e-05,2e-05,-2e-05,0.0,-1e-05,0.0,1,1.0
2768,-1e-05,-3e-05,8e-05,2e-05,-2e-05,0.0,-1e-05,0.0,1,1.0
2769,-1e-05,-3e-05,8e-05,2e-05,-2e-05,0.0,-1e-05,0.0,1,1.0
2770,-1e-05,-3e-05,8e-05,2e-05,-2e-05,0.0,-1e-05,0.0,1,1.0
2771,-1e-05,-3e-05,8e-05,2e-05,-2e-05,0.0,-1e-05,0.0,1,1.0
2772,-1e-05,-3e-05,8e-05,2e-05,-2e-05,0.0,-1e-05,0.0,1,1.0
2773,-1e-05,-3e-05,8e-05,2e-05,-2e-05,0.0,-1e-05,0.0,1,1.0
2774,-1e-05,-3e-05,8e-05,2e-05,-2e-05,0.0,-1e-05,0.0,1,1.0
2775,-1e-05,-3e-05,8e-05,2e-05,-2e-05,0.0,-1e-05,0.0,1,1.0
2776,-1e-05,-3e-05,8e-05,2e-05,-2e-05,0.0,-1e-05,0.0,1,1.0
2777,0.0,2e-05,8e-05,1e-05,-1e-05,-1e-05,-1e-05,-1e-05,1,1.0
2778,0.0,2e-05,-1e-05,2e-05,1e-05,-1e-05,0.0,1e-05,1,1.0
2779,0.0,2e-05,-1e-05,2e-05,1e-05,-1e-05,0.0,1e-05,1,1.0
2780,0.0,2e-05,-1e-05,2e-05,1e-05,-1e-05,0.0,1e-05,1,1.0
2781,0.0,2e-05,-1e-05,2e-05,1e-05,-1e-05,0.0,1e-05,1,1.0
2782,0.0,2e-05,-1e-05,2e-05,1e-05,-1e-05,0.0,1e-05,1,1.0
2783,0.0,2e-05,-1e-05,2e-05,1e-05,-1e-05,0.0,1e-05,1,1.0
2784,0.0,2e-05,-1e-05,2e-05,1e-05,-1e-05,0.0,1e-05,1,1.0
2785,0.0,2e-05,-1e-05,2e-05,1e-05,-1e-05,0.0,1e-05,1,1.0
2786,0.0,2e-05,-1e-05,2e-05,1e-05,-1e-05,0.0,1e-05,1,1.0
2789,0.0,2e-05,-1e-05,2e-05,1e-05,-1e-05,0.0,1e-05,1,1.0
2790,0.0,2e-05,-1e-05,2e-05,1e-05,-1e-05,0.0,1e-05,1,1.0
2791,-3e-05,-9e-05,-0.0002,-8e-05,-3e-05,-1e-05,0.0,2e-05,1,1.0
2792,0.0,-2e-05,-6e-05,-3e-05,0.0,0.0,-1e-05,-2e-05,1,1.0
2793,0.0,-2e-05,-6e-05,-3e-05,0.0,0.0,-1e-05,-2e-05,1,1.0
2794,0.0,-2e-05,-6e-05,-3e-05,0.0,0.0,-1e-05,-2e-05,1,1.0
2795,0.0,-2e-05,-6e-05,-3e-05,0.0,0.0,-1e-05,-2e-05,1,1.0
2796,0.0,-2e-05,-6e-05,-3e-05,0.0,0.0,-1e-05,-2e-05,1,1.0
2797,0.0,-2e-05,-6e-05,-3e-05,0.0,0.0,-1e-05,-2e-05,1,1.0
2798,0.0,-2e-05,-6e-05,-3e-05,0.0,0.0,-1e-05,-2e-05,1,1.0
2799,0.0,-2e-05,-6e-05,-3e-05,0.0,0.0,-1e-05,-2e-05,1,1.0
2800,0.0,-2e-05,-6e-05,-3e-05,0.0,0.0,-1e-05,-2e-05,1,1.0
2801,0.0,-2e-05,-6e-05,-3e-05,0.0,0.0,-1e-05,-2e-05,1,1.0
2802,0.0,-2e-05,-6e-05,-3e-05,0.0,0.0,-1e-05,-2e-05,1,1.0
2803,0.0,-2e-05,-6e-05,-3e-05,0.0,0.0,-1e-05,-2e-05,1,1.0
2804,0.0,-2e-05,-6e-05,-3e-05,0.0,0.0,-1e-05,-2e-05,1,1.0
2805,0.0,-2e-05,-6e-05,-3e-05,0.0,0.0,-1e-05,-2e-05,1,1.0
2806,0.0,-2e-05,-6e-05,-3e-05,0.0,0.0,-1e-05,-2e-05,1,1.0
2807,0.0,-2e-05,-6e-05,-3e-05,0.0,0.0,-1e-05,-2e-05,1,1.0
2808,0.0,-2e-05,-6e-05,-3e-05,0.0,0.0,-1e-05,-2e-05,1,1.0
2809,0.0,-2e-05,-6e-05,-3e-05,0.0,0.0,-1e-05,-2e-05,1,1.0
2810,0.0,-2e-05,-6e-05,-3e-05,0.0,0.0,-1e-05,-2e-05,1,1.0
2811,0.0,-2e-05,-6e-05,-3e-05,0.0,0.0,-1e-05,-2e-05,1,1.0
2812,0.0,-2e-05,-6e-05,-3e-05,0.0,0.0,-1e-05,-2e-05,1,1.0
2813,0.0,-2e-05,-6e-05,-3e-05,0.0,0.0,-1e-05,-2e-05,1,1.0
2814,-3e-05,-4e-05,-0.0001,-3e-05,-1e-05,-3e-05,0.0,-1e-05,1,1.0
2815,1e-05,-1e-05,-9e-05,-6e-05,0.0,-3e-05,-2e-05,-4e-05,1,1.0
2816,1e-05,-1e-05,-9e-05,-6e-05,0.0,-3e-05,-2e-05,-4e-05,1,1.0
2817,1e-05,-1e-05,-9e-05,-6e-05,0.0,-3e-05,-2e-05,-4e-05,1,1.0
2818,1e-05,-1e-05,-9e-05,-6e-05,0.0,-3e-05,-2e-05,-4e-05,1,1.0
2819,1e-05,-1e-05,-9e-05,-6e-05,0.0,-3e-05,-2e-05,-4e-05,1,1.0
2820,1e-05,-1e-05,-9e-05,-6e-05,0.0,-3e-05,-2e-05,-4e-05,1,1.0
2821,1e-05,-1e-05,-9e-05,-6e-05,0.0,-3e-05,-2e-05,-4e-05,1,1.0
2822,1e-05,-1e-05,-9e-05,-6e-05,0.0,-3e-05,-2e-05,-4e-05,1,1.0
2823,1e-05,-1e-05,-9e-05,-6e-05,0.0,-3e-05,-2e-05,-4e-05,1,1.0
2824,1e-05,-1e-05,-9e-05,-6e-05,0.0,-3e-05,-2e-05,-4e-05,1,1.0
2825,1e-05,-1e-05,-9e-05,-6e-05,0.0,-3e-05,-2e-05,-4e-05,1,1.0
2826,1e-05,-1e-05,-9e-05,-6e-05,0.0,-3e-05,-2e-05,-4e-05,1,1.0
2827,1e-05,-1e-05,-9e-05,-6e-05,0.0,-3e-05,-2e-05,-4e-05,1,1.0
2828,1e-05,0.0,-0.00011,0.0,0.0,2e-05,0.0,1e-05,1,1.0
2829,1e-05,0.0,-0.00011,0.0,0.0,2e-05,0.0,1e-05,1,1.0
2830,1e-05,0.0,-0.00011,0.0,0.0,2e-05,0.0,1e-05,1,1.0
2831,1e-05,0.0,-0.00011,0.0,0.0,2e-05,0.0,1e-05,1,1.0
2832,1e-05,0.0,-0.00011,0.0,0.0,2e-05,0.0,1e-05,1,1.0
2833,1e-05,0.0,-0.00011,0.0,0.0,2e-05,0.0,1e-05,1,1.0
2834,1e-05,0.0,-0.00011,0.0,0.0,2e-05,0.0,1e-05,1,1.0
2835,1e-05,0.0,-0.00011,0.0,0.0,2e-05,0.0,1e-05,1,1.0
2836,1e-05,0.0,0.00023,1e-05,-2e-05,-3e-05,-1e-05,-1e-05,1,1.0
2839,-6e-05,-6e-05,-0.00033,-7e-05,1e-05,0.0,-1e-05,-1e-05,1,1.0
2840,-6e-05,-6e-05,-0.00033,-7e-05,1e-05,0.0,-1e-05,-1e-05,1,1.0
2841,-6e-05,-6e-05,-0.00033,-7e-05,1e-05,0.0,-1e-05,-1e-05,1,1.0
2842,-6e-05,-6e-05,-0.00033,-7e-05,1e-05,0.0,-1e-05,-1e-05,1,1.0
2843,-6e-05,-6e-05,-0.00033,-7e-05,1e-05,0.0,-1e-05,-1e-05,1,1.0
2844,-6e-05,-6e-05,-0.00033,-7e-05,1e-05,0.0,-1e-05,-1e-05,1,1.0
2845,-6e-05,-6e-05,-0.00033,-7e-05,1e-05,0.0,-1e-05,-1e-05,1,1.0
2846,-6e-05,-6e-05,-0.00033,-7e-05,1e-05,0.0,-1e-05,-1e-05,1,1.0
2847,-6e-05,-6e-05,-0.00033,-7e-05,1e-05,0.0,-1e-05,-1e-05,1,1.0
2848,-6e-05,-6e-05,-0.00033,-7e-05,1e-05,0.0,-1e-05,-1e-05,1,1.0
2849,-6e-05,-6e-05,-0.00033,-7e-05,1e-05,0.0,-1e-05,-1e-05,1,1.0
2850,-6e-05,-6e-05,-0.00033,-7e-05,1e-05,0.0,-1e-05,-1e-05,1,1.0
2851,2e-05,6e-05,0.00026,6e-05,1e-05,-1e-05,-1e-05,2e-05,1,1.0
2852,-3e-05,-1e-05,0.0001,1e-05,-2e-05,1e-05,1e-05,-1e-05,1,1.0
2853,-3e-05,-1e-05,0.0001,1e-05,-2e-05,1e-05,1e-05,-1e-05,1,1.0
2854,-3e-05,-1e-05,0.0001,1e-05,-2e-05,1e-05,1e-05,-1e-05,1,1.0
2855,-3e-05,-1e-05,0.0001,1e-05,-2e-05,1e-05,1e-05,-1e-05,1,1.0
2856,-3e-05,-1e-05,0.0001,1e-05,-2e-05,1e-05,1e-05,-1e-05,1,1.0
2857,-3e-05,-1e-05,0.0001,1e-05,-2e-05,1e-05,1e-05,-1e-05,1,1.0
2858,-3e-05,-1e-05,0.0001,1e-05,-2e-05,1e-05,1e-05,-1e-05,1,1.0
2859,-3e-05,-1e-05,0.0001,1e-05,-2e-05,1e-05,1e-05,-1e-05,1,1.0
2860,-3e-05,-1e-05,0.0001,1e-05,-2e-05,1e-05,1e-05,-1e-05,1,1.0
2861,-3e-05,-1e-05,0.0001,1e-05,-2e-05,1e-05,1e-05,-1e-05,1,1.0
2862,-3e-05,-1e-05,0.0001,1e-05,-2e-05,1e-05,1e-05,-1e-05,1,1.0
2863,-3e-05,-1e-05,0.0001,1e-05,-2e-05,1e-05,1e-05,-1e-05,1,1.0
2864,-3e-05,-1e-05,0.0001,1e-05,-2e-05,1e-05,1e-05,-1e-05,1,1.0
2865,-3e-05,-1e-05,0.0001,1e-05,-2e-05,1e-05,1e-05,-1e-05,1,1.0
2866,-3e-05,-1e-05,0.0001,1e-05,-2e-05,1e-05,1e-05,-1e-05,1,1.0
2867,-3e-05,-1e-05,0.0001,1e-05,-2e-05,1e-05,1e-05,-1e-05,1,1.0
2868,-3e-05,-1e-05,0.0001,1e-05,-2e-05,1e-05,1e-05,-1e-05,1,1.0
2869,-3e-05,-1e-05,0.0001,1e-05,-2e-05,1e-05,1e-05,-1e-05,1,1.0
2870,-3e-05,-1e-05,0.0001,1e-05,-2e-05,1e-05,1e-05,-1e-05,1,1.0
2871,-3e-05,-1e-05,0.0001,1e-05,-2e-05,1e-05,1e-05,-1e-05,1,1.0
2872,-3e-05,-1e-05,0.0001,1e-05,-2e-05,1e-05,1e-05,-1e-05,1,1.0
2873,-3e-05,-1e-05,0.0001,1e-05,-2e-05,1e-05,1e-05,-1e-05,1,1.0
2874,0.0,-5e-05,-0.0001,0.0,-2e-05,-1e-05,0.0,-2e-05,1,1.0
2875,-2e-05,-6e-05,-0.00013,0.0,2e-05,0.0,-2e-05,-4e-05,1,1.0
2876,2e-05,1e-05,5e-05,-4e-05,-1e-05,-3e-05,0.0,1e-05,1,1.0
2877,2e-05,1e-05,5e-05,-4e-05,-1e-05,-3e-05,0.0,1e-05,1,1.0
2878,2e-05,1e-05,5e-05,-4e-05,-1e-05,-3e-05,0.0,1e-05,1,1.0
2879,2e-05,1e-05,5e-05,-4e-05,-1e-05,-3e-05,0.0,1e-05,1,1.0
2880,2e-05,1e-05,5e-05,-4e-05,-1e-05,-3e-05,0.0,1e-05,1,1.0
2881,2e-05,1e-05,5e-05,-4e-05,-1e-05,-3e-05,0.0,1e-05,1,1.0
2882,2e-05,1e-05,5e-05,-4e-05,-1e-05,-3e-05,0.0,1e-05,1,1.0
2883,2e-05,1e-05,5e-05,-4e-05,-1e-05,-3e-05,0.0,1e-05,1,1.0
2884,2e-05,1e-05,5e-05,-4e-05,-1e-05,-3e-05,0.0,1e-05,1,1.0
2885,2e-05,1e-05,5e-05,-4e-05,-1e-05,-3e-05,0.0,1e-05,1,1.0
2886,2e-05,1e-05,5e-05,-4e-05,-1e-05,-3e-05,0.0,1e-05,1,1.0
2889,0.0,1e-05,6e-05,0.0,-3e-05,-2e-05,-3e-05,-4e-05,1,1.0
2890,0.0,1e-05,6e-05,0.0,-3e-05,-2e-05,-3e-05,-4e-05,1,1.0
2891,0.0,1e-05,6e-05,0.0,-3e-05,-2e-05,-3e-05,-4e-05,1,1.0
2892,0.0,1e-05,6e-05,0.0,-3e-05,-2e-05,-3e-05,-4e-05,1,1.0
2893,0.0,1e-05,6e-05,0.0,-3e-05,-2e-05,-3e-05,-4e-05,1,1.0
2894,0.0,1e-05,6e-05,0.0,-3e-05,-2e-05,-3e-05,-4e-05,1,1.0
2895,0.0,1e-05,6e-05,0.0,-3e-05,-2e-05,-3e-05,-4e-05,1,1.0
2896,0.0,-4e-05,-0.00014,-3e-05,-5e-05,-1e-05,-2e-05,1e-05,1,1.0
2898,0.0,-4e-05,-0.00014,-3e-05,-5e-05,-1e-05,-2e-05,1e-05,1,1.0
2899,0.0,-4e-05,-0.00014,-3e-05,-5e-05,-1e-05,-2e-05,1e-05,1,1.0
2901,0.0,-4e-05,-0.00014,-3e-05,-5e-05,-1e-05,-2e-05,1e-05,1,1.0
2902,0.0,-4e-05,-0.00014,-3e-05,-5e-05,-1e-05,-2e-05,1e-05,1,1.0
2903,0.0,-4e-05,-0.00014,-3e-05,-5e-05,-1e-05,-2e-05,1e-05,1,1.0
2904,0.0,-4e-05,-0.00014,-3e-05,-5e-05,-1e-05,-2e-05,1e-05,1,1.0
2905,0.0,-4e-05,-0.00014,-3e-05,-5e-05,-1e-05,-2e-05,1e-05,1,1.0
2906,0.0,-4e-05,-0.00014,-3e-05,-5e-05,-1e-05,-2e-05,1e-05,1,1.0
2907,0.0,-4e-05,-0.00014,-3e-05,-5e-05,-1e-05,-2e-05,1e-05,1,1.0
2908,0.0,-4e-05,-0.00014,-3e-05,-5e-05,-1e-05,-2e-05,1e-05,1,1.0
2909,0.0,-4e-05,-0.00014,-3e-05,-5e-05,-1e-05,-2e-05,1e-05,1,1.0
2910,0.0,-4e-05,-0.00014,-3e-05,-5e-05,-1e-05,-2e-05,1e-05,1,1.0
2911,1e-05,-1e-05,4e-05,-2e-05,-1e-05,-2e-05,1e-05,0.0,1,1.0
2912,-1e-05,-1e-05,5e-05,-2e-05,-1e-05,0.0,-2e-05,-4e-05,1,1.0
2913,-1e-05,-1e-05,5e-05,-2e-05,-1e-05,0.0,-2e-05,-4e-05,1,1.0
2914,-1e-05,-1e-05,5e-05,-2e-05,-1e-05,0.0,-2e-05,-4e-05,1,1.0
2915,-1e-05,-1e-05,5e-05,-2e-05,-1e-05,0.0,-2e-05,-4e-05,1,1.0
2916,-1e-05,-1e-05,5e-05,-2e-05,-1e-05,0.0,-2e-05,-4e-05,1,1.0
2917,-1e-05,-1e-05,5e-05,-2e-05,-1e-05,0.0,-2e-05,-4e-05,1,1.0
2918,-1e-05,-1e-05,5e-05,-2e-05,-1e-05,0.0,-2e-05,-4e-05,1,1.0
2919,-1e-05,-1e-05,5e-05,-2e-05,-1e-05,0.0,-2e-05,-4e-05,1,1.0
2920,-1e-05,-1e-05,5e-05,-2e-05,-1e-05,0.0,-2e-05,-4e-05,1,1.0
2921,-1e-05,-1e-05,5e-05,-2e-05,-1e-05,0.0,-2e-05,-4e-05,1,1.0
2922,-1e-05,-1e-05,5e-05,-2e-05,-1e-05,0.0,-2e-05,-4e-05,1,1.0
2924,-1e-05,-1e-05,5e-05,-2e-05,-1e-05,0.0,-2e-05,-4e-05,1,1.0
2925,-1e-05,-1e-05,5e-05,-2e-05,-1e-05,0.0,-2e-05,-4e-05,1,1.0
2926,-1e-05,-1e-05,5e-05,-2e-05,-1e-05,0.0,-2e-05,-4e-05,1,1.0
2927,-1e-05,-1e-05,5e-05,-2e-05,-1e-05,0.0,-2e-05,-4e-05,1,1.0
2928,-1e-05,-1e-05,5e-05,-2e-05,-1e-05,0.0,-2e-05,-4e-05,1,1.0
2929,-1e-05,-1e-05,5e-05,-2e-05,-1e-05,0.0,-2e-05,-4e-05,1,1.0
2930,-1e-05,-1e-05,5e-05,-2e-05,-1e-05,0.0,-2e-05,-4e-05,1,1.0
2931,-1e-05,-1e-05,5e-05,-2e-05,-1e-05,0.0,-2e-05,-4e-05,1,1.0
2932,-1e-05,-1e-05,5e-05,-2e-05,-1e-05,0.0,-2e-05,-4e-05,1,1.0
2933,-1e-05,-1e-05,5e-05,-2e-05,-1e-05,0.0,-2e-05,-4e-05,1,1.0
2934,1e-05,-2e-05,-8e-05,-5e-05,0.0,0.0,-3e-05,1e-05,1,1.0
2935,-1e-05,0.0,-1e-05,1e-05,-3e-05,-2e-05,2e-05,-2e-05,1,1.0
2936,-1e-05,0.0,-1e-05,1e-05,-3e-05,-2e-05,2e-05,-2e-05,1,1.0
2938,-1e-05,0.0,-1e-05,1e-05,-3e-05,-2e-05,2e-05,-2e-05,1,1.0
2939,-1e-05,0.0,-1e-05,1e-05,-3e-05,-2e-05,2e-05,-2e-05,1,1.0
2940,-1e-05,0.0,-1e-05,1e-05,-3e-05,-2e-05,2e-05,-2e-05,1,1.0
2941,-1e-05,0.0,-1e-05,1e-05,-3e-05,-2e-05,2e-05,-2e-05,1,1.0
2942,-1e-05,0.0,-1e-05,1e-05,-3e-05,-2e-05,2e-05,-2e-05,1,1.0
2943,-1e-05,0.0,-1e-05,1e-05,-3e-05,-2e-05,2e-05,-2e-05,1,1.0
2944,-1e-05,0.0,-1e-05,1e-05,-3e-05,-2e-05,2e-05,-2e-05,1,1.0
2945,-1e-05,0.0,-1e-05,1e-05,-3e-05,-2e-05,2e-05,-2e-05,1,1.0
2946,-1e-05,0.0,-1e-05,1e-05,-3e-05,-2e-05,2e-05,-2e-05,1,1.0
2947,-1e-05,0.0,-1e-05,1e-05,-3e-05,-2e-05,2e-05,-2e-05,1,1.0
2948,-4e-05,-2e-05,0.0,-2e-05,1e-05,-4e-05,-1e-05,-4e-05,1,1.0
2949,-4e-05,-2e-05,0.0,-2e-05,1e-05,-4e-05,-1e-05,-4e-05,1,1.0
2950,-4e-05,-2e-05,0.0,-2e-05,1e-05,-4e-05,-1e-05,-4e-05,1,1.0
2951,-4e-05,-2e-05,0.0,-2e-05,1e-05,-4e-05,-1e-05,-4e-05,1,1.0
2952,-4e-05,-2e-05,0.0,-2e-05,1e-05,-4e-05,-1e-05,-4e-05,1,1.0
2953,-4e-05,-2e-05,0.0,-2e-05,1e-05,-4e-05,-1e-05,-4e-05,1,1.0
2954,-4e-05,-2e-05,0.0,-2e-05,1e-05,-4e-05,-1e-05,-4e-05,1,1.0
2955,-4e-05,-2e-05,0.0,-2e-05,1e-05,-4e-05,-1e-05,-4e-05,1,1.0
2956,-1e-05,4e-05,0.0002,3e-05,-4e-05,-1e-05,-2e-05,0.0,1,1.0
2957,-1e-05,4e-05,0.0002,3e-05,-4e-05,-1e-05,-2e-05,0.0,1,1.0
2958,-1e-05,4e-05,0.0002,3e-05,-4e-05,-1e-05,-2e-05,0.0,1,1.0
2959,-1e-05,4e-05,0.0002,3e-05,-4e-05,-1e-05,-2e-05,0.0,1,1.0
2960,-1e-05,4e-05,0.0002,3e-05,-4e-05,-1e-05,-2e-05,0.0,1,1.0
2961,-1e-05,4e-05,0.0002,3e-05,-4e-05,-1e-05,-2e-05,0.0,1,1.0
2962,-1e-05,4e-05,0.0002,3e-05,-4e-05,-1e-05,-2e-05,0.0,1,1.0
2963,-1e-05,4e-05,0.0002,3e-05,-4e-05,-1e-05,-2e-05,0.0,1,1.0
2964,-1e-05,4e-05,0.0002,3e-05,-4e-05,-1e-05,-2e-05,0.0,1,1.0
2965,-1e-05,4e-05,0.0002,3e-05,-4e-05,-1e-05,-2e-05,0.0,1,1.0
2966,-1e-05,4e-05,0.0002,3e-05,-4e-05,-1e-05,-2e-05,0.0,1,1.0
2967,-1e-05,4e-05,0.0002,3e-05,-4e-05,-1e-05,-2e-05,0.0,1,1.0
2968,-1e-05,4e-05,0.0002,3e-05,-4e-05,-1e-05,-2e-05,0.0,1,1.0
2969,-1e-05,4e-05,0.0002,3e-05,-4e-05,-1e-05,-2e-05,0.0,1,1.0
2970,-1e-05,4e-05,0.0002,3e-05,-4e-05,-1e-05,-2e-05,0.0,1,1.0
2971,0.0,1e-05,3e-05,2e-05,-1e-05,0.0,1e-05,-1e-05,1,1.0
2972,-1e-05,-3e-05,2e-05,0.0,-1e-05,0.0,-1e-05,-3e-05,1,1.0
2973,-1e-05,-3e-05,2e-05,0.0,-1e-05,0.0,-1e-05,-3e-05,1,1.0
2974,-1e-05,-3e-05,2e-05,0.0,-1e-05,0.0,-1e-05,-3e-05,1,1.0
2975,-1e-05,-3e-05,2e-05,0.0,-1e-05,0.0,-1e-05,-3e-05,1,1.0
2976,-1e-05,-3e-05,2e-05,0.0,-1e-05,0.0,-1e-05,-3e-05,1,1.0
2977,-1e-05,-3e-05,2e-05,0.0,-1e-05,0.0,-1e-05,-3e-05,1,1.0
2978,-1e-05,-3e-05,2e-05,0.0,-1e-05,0.0,-1e-05,-3e-05,1,1.0
2979,-1e-05,-3e-05,2e-05,0.0,-1e-05,0.0,-1e-05,-3e-05,1,1.0
2980,-1e-05,-3e-05,2e-05,0.0,-1e-05,0.0,-1e-05,-3e-05,1,1.0
2981,-1e-05,-3e-05,2e-05,0.0,-1e-05,0.0,-1e-05,-3e-05,1,1.0
2982,-1e-05,-3e-05,2e-05,0.0,-1e-05,0.0,-1e-05,-3e-05,1,1.0
2983,-1e-05,-3e-05,2e-05,0.0,-1e-05,0.0,-1e-05,-3e-05,1,1.0
2984,-1e-05,-3e-05,2e-05,0.0,-1e-05,0.0,-1e-05,-3e-05,1,1.0
2985,-1e-05,-3e-05,2e-05,0.0,-1e-05,0.0,-1e-05,-3e-05,1,1.0
2986,-1e-05,-3e-05,2e-05,0.0,-1e-05,0.0,-1e-05,-3e-05,1,1.0
2988,-1e-05,-3e-05,2e-05,0.0,-1e-05,0.0,-1e-05,-3e-05,1,1.0
2989,-1e-05,-3e-05,2e-05,0.0,-1e-05,0.0,-1e-05,-3e-05,1,1.0
2990,-1e-05,-3e-05,2e-05,0.0,-1e-05,0.0,-1e-05,-3e-05,1,1.0
2991,-1e-05,-3e-05,2e-05,0.0,-1e-05,0.0,-1e-05,-3e-05,1,1.0
2992,-1e-05,-3e-05,2e-05,0.0,-1e-05,0.0,-1e-05,-3e-05,1,1.0
2993,-1e-05,-3e-05,2e-05,0.0,-1e-05,0.0,-1e-05,-3e-05,1,1.0
2994,-2e-05,-4e-05,-0.00011,-2e-05,-2e-05,-1e-05,1e-05,-1e-05,1,1.0
2995,-3e-05,-2e-05,0.00012,-3e-05,1e-05,0.0,-4e-05,-1e-05,1,1.0
2996,-3e-05,-2e-05,0.00012,-3e-05,1e-05,0.0,-4e-05,-1e-05,1,1.0
2997,-3e-05,-2e-05,0.00012,-3e-05,1e-05,0.0,-4e-05,-1e-05,1,1.0
2998,-3e-05,-2e-05,0.00012,-3e-05,1e-05,0.0,-4e-05,-1e-05,1,1.0
2999,-3e-05,-2e-05,0.00012,-3e-05,1e-05,0.0,-4e-05,-1e-05,1,1.0
3000,-3e-05,-2e-05,0.00012,-3e-05,1e-05,0.0,-4e-05,-1e-05,1,1.0
3001,-3e-05,-2e-05,0.00012,-3e-05,1e-05,0.0,-4e-05,-1e-05,1,1.0
3002,-3e-05,-2e-05,0.00012,-3e-05,1e-05,0.0,-4e-05,-1e-05,1,1.0
3003,-3e-05,-2e-05,0.00012,-3e-05,1e-05,0.0,-4e-05,-1e-05,1,1.0
3004,-3e-05,-2e-05,0.00012,-3e-05,1e-05,0.0,-4e-05,-1e-05,1,1.0
3005,-3e-05,-2e-05,0.00012,-3e-05,1e-05,0.0,-4e-05,-1e-05,1,1.0
3006,-3e-05,-2e-05,0.00012,-3e-05,1e-05,0.0,-4e-05,-1e-05,1,1.0
3007,-3e-05,-2e-05,0.00012,-3e-05,1e-05,0.0,-4e-05,-1e-05,1,1.0
3008,-3e-05,-2e-05,0.00012,-3e-05,1e-05,0.0,-4e-05,-1e-05,1,1.0
3009,-3e-05,-2e-05,0.00012,-3e-05,1e-05,0.0,-4e-05,-1e-05,1,1.0
3010,-3e-05,-2e-05,0.00012,-3e-05,1e-05,0.0,-4e-05,-1e-05,1,1.0
3011,-3e-05,-2e-05,0.00012,-3e-05,1e-05,0.0,-4e-05,-1e-05,1,1.0
3012,-3e-05,-2e-05,0.00012,-3e-05,1e-05,0.0,-4e-05,-1e-05,1,1.0
3013,-3e-05,-2e-05,0.00012,-3e-05,1e-05,0.0,-4e-05,-1e-05,1,1.0
3014,-3e-05,-2e-05,0.00012,-3e-05,1e-05,0.0,-4e-05,-1e-05,1,1.0
3015,-3e-05,-2e-05,0.00012,-3e-05,1e-05,0.0,-4e-05,-1e-05,1,1.0
3016,-3e-05,-2e-05,0.00012,-3e-05,1e-05,0.0,-4e-05,-1e-05,1,1.0
3017,-3e-05,-2e-05,0.00012,-3e-05,1e-05,0.0,-4e-05,-1e-05,1,1.0
3018,-3e-05,-2e-05,0.00012,-3e-05,1e-05,0.0,-4e-05,-1e-05,1,1.0
3019,-3e-05,-2e-05,0.00012,-3e-05,1e-05,0.0,-4e-05,-1e-05,1,1.0
3020,-3e-05,-2e-05,0.00012,-3e-05,1e-05,0.0,-4e-05,-1e-05,1,1.0
3021,-3e-05,-2e-05,0.00012,-3e-05,1e-05,0.0,-4e-05,-1e-05,1,1.0
3022,-3e-05,-2e-05,0.00012,-3e-05,1e-05,0.0,-4e-05,-1e-05,1,1.0
3023,-3e-05,-2e-05,0.00012,-3e-05,1e-05,0.0,-4e-05,-1e-05,1,1.0
3024,1e-05,0.0,-9e-05,0.0,1e-05,-2e-05,-3e-05,-1e-05,1,1.0
3025,-4e-05,0.0,7e-05,1e-05,-2e-05,-2e-05,-3e-05,0.0,1,1.0
3026,-4e-05,0.0,7e-05,1e-05,-2e-05,-2e-05,-3e-05,0.0,1,1.0
3027,-4e-05,0.0,7e-05,1e-05,-2e-05,-2e-05,-3e-05,0.0,1,1.0
3028,-4e-05,0.0,7e-05,1e-05,-2e-05,-2e-05,-3e-05,0.0,1,1.0
3029,-4e-05,0.0,7e-05,1e-05,-2e-05,-2e-05,-3e-05,0.0,1,1.0
3030,-4e-05,0.0,7e-05,1e-05,-2e-05,-2e-05,-3e-05,0.0,1,1.0
3031,-3e-05,4e-05,2e-05,0.0,1e-05,1e-05,2e-05,-1e-05,1,1.0
3032,1e-05,-6e-05,-9e-05,0.0,-1e-05,-3e-05,-1e-05,-3e-05,1,1.0
3033,1e-05,-6e-05,-9e-05,0.0,-1e-05,-3e-05,-1e-05,-3e-05,1,1.0
3034,1e-05,-6e-05,-9e-05,0.0,-1e-05,-3e-05,-1e-05,-3e-05,1,1.0
3035,1e-05,-6e-05,-9e-05,0.0,-1e-05,-3e-05,-1e-05,-3e-05,1,1.0
3036,1e-05,-6e-05,-9e-05,0.0,-1e-05,-3e-05,-1e-05,-3e-05,1,1.0
3039,1e-05,-6e-05,-9e-05,0.0,-1e-05,-3e-05,-1e-05,-3e-05,1,1.0
3040,1e-05,-6e-05,-9e-05,0.0,-1e-05,-3e-05,-1e-05,-3e-05,1,1.0
3041,1e-05,-6e-05,-9e-05,0.0,-1e-05,-3e-05,-1e-05,-3e-05,1,1.0
3042,1e-05,-6e-05,-9e-05,0.0,-1e-05,-3e-05,-1e-05,-3e-05,1,1.0
3043,1e-05,-6e-05,-9e-05,0.0,-1e-05,-3e-05,-1e-05,-3e-05,1,1.0
3044,1e-05,-6e-05,-9e-05,0.0,-1e-05,-3e-05,-1e-05,-3e-05,1,1.0
3045,1e-05,-6e-05,-9e-05,0.0,-1e-05,-3e-05,-1e-05,-3e-05,1,1.0
3046,1e-05,-6e-05,-9e-05,0.0,-1e-05,-3e-05,-1e-05,-3e-05,1,1.0
3047,1e-05,-6e-05,-9e-05,0.0,-1e-05,-3e-05,-1e-05,-3e-05,1,1.0
3048,1e-05,-6e-05,-9e-05,0.0,-1e-05,-3e-05,-1e-05,-3e-05,1,1.0
3049,1e-05,-6e-05,-9e-05,0.0,-1e-05,-3e-05,-1e-05,-3e-05,1,1.0
3050,1e-05,-6e-05,-9e-05,0.0,-1e-05,-3e-05,-1e-05,-3e-05,1,1.0
3051,1e-05,-6e-05,-9e-05,0.0,-1e-05,-3e-05,-1e-05,-3e-05,1,1.0
3052,1e-05,-6e-05,-9e-05,0.0,-1e-05,-3e-05,-1e-05,-3e-05,1,1.0
3053,1e-05,-6e-05,-9e-05,0.0,-1e-05,-3e-05,-1e-05,-3e-05,1,1.0
3054,2e-05,1e-05,-1e-05,-2e-05,-2e-05,-2e-05,-2e-05,-1e-05,1,1.0
3055,3e-05,2e-05,7e-05,4e-05,0.0,0.0,-2e-05,-2e-05,1,1.0
3056,3e-05,2e-05,7e-05,4e-05,0.0,0.0,-2e-05,-2e-05,1,1.0
3057,3e-05,2e-05,7e-05,4e-05,0.0,0.0,-2e-05,-2e-05,1,1.0
3058,3e-05,2e-05,7e-05,4e-05,0.0,0.0,-2e-05,-2e-05,1,1.0
3059,3e-05,2e-05,7e-05,4e-05,0.0,0.0,-2e-05,-2e-05,1,1.0
3060,3e-05,2e-05,7e-05,4e-05,0.0,0.0,-2e-05,-2e-05,1,1.0
3061,3e-05,2e-05,7e-05,4e-05,0.0,0.0,-2e-05,-2e-05,1,1.0
3062,3e-05,2e-05,7e-05,4e-05,0.0,0.0,-2e-05,-2e-05,1,1.0
3063,3e-05,2e-05,7e-05,4e-05,0.0,0.0,-2e-05,-2e-05,1,1.0
3064,3e-05,2e-05,7e-05,4e-05,0.0,0.0,-2e-05,-2e-05,1,1.0
3065,3e-05,2e-05,7e-05,4e-05,0.0,0.0,-2e-05,-2e-05,1,1.0
3066,3e-05,2e-05,7e-05,4e-05,0.0,0.0,-2e-05,-2e-05,1,1.0
3067,3e-05,2e-05,7e-05,4e-05,0.0,0.0,-2e-05,-2e-05,1,1.0
3068,3e-05,2e-05,7e-05,4e-05,0.0,0.0,-2e-05,-2e-05,1,1.0
3069,3e-05,2e-05,7e-05,4e-05,0.0,0.0,-2e-05,-2e-05,1,1.0
3070,3e-05,2e-05,7e-05,4e-05,0.0,0.0,-2e-05,-2e-05,1,1.0
3071,3e-05,2e-05,7e-05,4e-05,0.0,0.0,-2e-05,-2e-05,1,1.0
3072,3e-05,2e-05,7e-05,4e-05,0.0,0.0,-2e-05,-2e-05,1,1.0
3073,3e-05,2e-05,7e-05,4e-05,0.0,0.0,-2e-05,-2e-05,1,1.0
3074,3e-05,2e-05,7e-05,4e-05,0.0,0.0,-2e-05,-2e-05,1,1.0
3075,3e-05,2e-05,7e-05,4e-05,0.0,0.0,-2e-05,-2e-05,1,1.0
3076,3e-05,2e-05,7e-05,4e-05,0.0,0.0,-2e-05,-2e-05,1,1.0
3077,3e-05,2e-05,7e-05,4e-05,0.0,0.0,-2e-05,-2e-05,1,1.0
3078,3e-05,2e-05,7e-05,4e-05,0.0,0.0,-2e-05,-2e-05,1,1.0
3079,3e-05,2e-05,7e-05,4e-05,0.0,0.0,-2e-05,-2e-05,1,1.0
3080,3e-05,2e-05,7e-05,4e-05,0.0,0.0,-2e-05,-2e-05,1,1.0
3081,3e-05,2e-05,7e-05,4e-05,0.0,0.0,-2e-05,-2e-05,1,1.0
3082,3e-05,2e-05,7e-05,4e-05,0.0,0.0,-2e-05,-2e-05,1,1.0
3083,3e-05,2e-05,7e-05,4e-05,0.0,0.0,-2e-05,-2e-05,1,1.0
3084,-1e-05,-4e-05,-4e-05,-2e-05,-2e-05,-1e-05,-1e-05,-2e-05,1,1.0
3085,0.0,0.0,-9e-05,-1e-05,0.0,-2e-05,0.0,-1e-05,1,1.0
3086,0.0,0.0,-9e-05,-1e-05,0.0,-2e-05,0.0,-1e-05,1,1.0
3088,0.0,0.0,-9e-05,-1e-05,0.0,-2e-05,0.0,-1e-05,1,1.0
3089,0.0,0.0,-9e-05,-1e-05,0.0,-2e-05,0.0,-1e-05,1,1.0
3090,0.0,0.0,-9e-05,-1e-05,0.0,-2e-05,0.0,-1e-05,1,1.0
3091,0.0,-5e-05,-6e-05,-6e-05,-1e-05,-1e-05,2e-05,-2e-05,1,1.0
3092,-1e-05,3e-05,0.0001,1e-05,1e-05,-2e-05,-1e-05,-2e-05,1,1.0
3093,-1e-05,3e-05,0.0001,1e-05,1e-05,-2e-05,-1e-05,-2e-05,1,1.0
3094,-1e-05,3e-05,0.0001,1e-05,1e-05,-2e-05,-1e-05,-2e-05,1,1.0
3095,-1e-05,3e-05,0.0001,1e-05,1e-05,-2e-05,-1e-05,-2e-05,1,1.0
3096,-1e-05,3e-05,0.0001,1e-05,1e-05,-2e-05,-1e-05,-2e-05,1,1.0
3097,-1e-05,3e-05,0.0001,1e-05,1e-05,-2e-05,-1e-05,-2e-05,1,1.0
3098,-1e-05,3e-05,0.0001,1e-05,1e-05,-2e-05,-1e-05,-2e-05,1,1.0
3099,-1e-05,3e-05,0.0001,1e-05,1e-05,-2e-05,-1e-05,-2e-05,1,1.0
3100,-1e-05,3e-05,0.0001,1e-05,1e-05,-2e-05,-1e-05,-2e-05,1,1.0
3101,-1e-05,3e-05,0.0001,1e-05,1e-05,-2e-05,-1e-05,-2e-05,1,1.0
3102,-1e-05,3e-05,0.0001,1e-05,1e-05,-2e-05,-1e-05,-2e-05,1,1.0
3103,-1e-05,3e-05,0.0001,1e-05,1e-05,-2e-05,-1e-05,-2e-05,1,1.0
3104,-1e-05,3e-05,0.0001,1e-05,1e-05,-2e-05,-1e-05,-2e-05,1,1.0
3105,-1e-05,3e-05,0.0001,1e-05,1e-05,-2e-05,-1e-05,-2e-05,1,1.0
3106,-1e-05,3e-05,0.0001,1e-05,1e-05,-2e-05,-1e-05,-2e-05,1,1.0
3107,-1e-05,3e-05,0.0001,1e-05,1e-05,-2e-05,-1e-05,-2e-05,1,1.0
3108,-1e-05,3e-05,0.0001,1e-05,1e-05,-2e-05,-1e-05,-2e-05,1,1.0
3109,-1e-05,3e-05,0.0001,1e-05,1e-05,-2e-05,-1e-05,-2e-05,1,1.0
3110,-1e-05,3e-05,0.0001,1e-05,1e-05,-2e-05,-1e-05,-2e-05,1,1.0
3111,-1e-05,3e-05,0.0001,1e-05,1e-05,-2e-05,-1e-05,-2e-05,1,1.0
3112,-1e-05,3e-05,0.0001,1e-05,1e-05,-2e-05,-1e-05,-2e-05,1,1.0
3113,-1e-05,3e-05,0.0001,1e-05,1e-05,-2e-05,-1e-05,-2e-05,1,1.0
3114,-1e-05,3e-05,0.0001,1e-05,1e-05,-2e-05,-1e-05,-2e-05,1,1.0
3115,-1e-05,-4e-05,5e-05,0.0,0.0,-1e-05,-1e-05,-2e-05,1,1.0
3116,-2e-05,0.0,2e-05,-4e-05,-3e-05,1e-05,0.0,-3e-05,1,1.0
3117,-2e-05,0.0,2e-05,-4e-05,-3e-05,1e-05,0.0,-3e-05,1,1.0
3118,-2e-05,0.0,2e-05,-4e-05,-3e-05,1e-05,0.0,-3e-05,1,1.0
3119,-2e-05,0.0,2e-05,-4e-05,-3e-05,1e-05,0.0,-3e-05,1,1.0
3120,-2e-05,0.0,2e-05,-4e-05,-3e-05,1e-05,0.0,-3e-05,1,1.0
3121,-2e-05,0.0,2e-05,-4e-05,-3e-05,1e-05,0.0,-3e-05,1,1.0
3122,-2e-05,0.0,2e-05,-4e-05,-3e-05,1e-05,0.0,-3e-05,1,1.0
3123,-2e-05,0.0,2e-05,-4e-05,-3e-05,1e-05,0.0,-3e-05,1,1.0
3124,-2e-05,0.0,2e-05,-4e-05,-3e-05,1e-05,0.0,-3e-05,1,1.0
3125,-2e-05,0.0,2e-05,-4e-05,-3e-05,1e-05,0.0,-3e-05,1,1.0
3126,-2e-05,0.0,2e-05,-4e-05,-3e-05,1e-05,0.0,-3e-05,1,1.0
3127,-2e-05,0.0,2e-05,-4e-05,-3e-05,1e-05,0.0,-3e-05,1,1.0
3128,-2e-05,0.0,2e-05,-4e-05,-3e-05,1e-05,0.0,-3e-05,1,1.0
3129,-2e-05,0.0,2e-05,-4e-05,-3e-05,1e-05,0.0,-3e-05,1,1.0
3130,-2e-05,0.0,2e-05,-4e-05,-3e-05,1e-05,0.0,-3e-05,1,1.0
3131,-2e-05,0.0,2e-05,-4e-05,-3e-05,1e-05,0.0,-3e-05,1,1.0
3132,-2e-05,0.0,2e-05,-4e-05,-3e-05,1e-05,0.0,-3e-05,1,1.0
3133,-2e-05,0.0,2e-05,-4e-05,-3e-05,1e-05,0.0,-3e-05,1,1.0
3134,-2e-05,0.0,2e-05,-4e-05,-3e-05,1e-05,0.0,-3e-05,1,1.0
3135,-2e-05,0.0,2e-05,-4e-05,-3e-05,1e-05,0.0,-3e-05,1,1.0
3136,-2e-05,0.0,2e-05,-4e-05,-3e-05,1e-05,0.0,-3e-05,1,1.0
3139,0.0,4e-05,0.00015,3e-05,0.0,0.0,0.0,-1e-05,1,1.0
3140,0.0,4e-05,0.00015,3e-05,0.0,0.0,0.0,-1e-05,1,1.0
3141,0.0,4e-05,0.00015,3e-05,0.0,0.0,0.0,-1e-05,1,1.0
3142,0.0,4e-05,0.00015,3e-05,0.0,0.0,0.0,-1e-05,1,1.0
3143,0.0,4e-05,0.00015,3e-05,0.0,0.0,0.0,-1e-05,1,1.0
3144,0.0,4e-05,0.00015,3e-05,0.0,0.0,0.0,-1e-05,1,1.0
3145,0.0,4e-05,0.00015,3e-05,0.0,0.0,0.0,-1e-05,1,1.0
3146,0.0,4e-05,0.00015,3e-05,0.0,0.0,0.0,-1e-05,1,1.0
3147,0.0,4e-05,0.00015,3e-05,0.0,0.0,0.0,-1e-05,1,1.0
3148,0.0,4e-05,0.00015,3e-05,0.0,0.0,0.0,-1e-05,1,1.0
3149,0.0,4e-05,0.00015,3e-05,0.0,0.0,0.0,-1e-05,1,1.0
3150,0.0,4e-05,0.00015,3e-05,0.0,0.0,0.0,-1e-05,1,1.0
3151,-3e-05,-8e-05,-0.00023,-2e-05,-2e-05,1e-05,-2e-05,-1e-05,1,1.0
3152,1e-05,-4e-05,-4e-05,-3e-05,2e-05,-1e-05,-1e-05,2e-05,1,1.0
3153,1e-05,-4e-05,-4e-05,-3e-05,2e-05,-1e-05,-1e-05,2e-05,1,1.0
3154,1e-05,-4e-05,-4e-05,-3e-05,2e-05,-1e-05,-1e-05,2e-05,1,1.0
3155,1e-05,-4e-05,-4e-05,-3e-05,2e-05,-1e-05,-1e-05,2e-05,1,1.0
3156,1e-05,-4e-05,-4e-05,-3e-05,2e-05,-1e-05,-1e-05,2e-05,1,1.0
3157,1e-05,-4e-05,-4e-05,-3e-05,2e-05,-1e-05,-1e-05,2e-05,1,1.0
3158,1e-05,-4e-05,-4e-05,-3e-05,2e-05,-1e-05,-1e-05,2e-05,1,1.0
3159,1e-05,-4e-05,-4e-05,-3e-05,2e-05,-1e-05,-1e-05,2e-05,1,1.0
3160,1e-05,-4e-05,-4e-05,-3e-05,2e-05,-1e-05,-1e-05,2e-05,1,1.0
3161,1e-05,-4e-05,-4e-05,-3e-05,2e-05,-1e-05,-1e-05,2e-05,1,1.0
3162,1e-05,-4e-05,-4e-05,-3e-05,2e-05,-1e-05,-1e-05,2e-05,1,1.0
3163,1e-05,-4e-05,-4e-05,-3e-05,2e-05,-1e-05,-1e-05,2e-05,1,1.0
3164,1e-05,-4e-05,-4e-05,-3e-05,2e-05,-1e-05,-1e-05,2e-05,1,1.0
3165,1e-05,-4e-05,-4e-05,-3e-05,2e-05,-1e-05,-1e-05,2e-05,1,1.0
3166,1e-05,-4e-05,-4e-05,-3e-05,2e-05,-1e-05,-1e-05,2e-05,1,1.0
3167,1e-05,-4e-05,-4e-05,-3e-05,2e-05,-1e-05,-1e-05,2e-05,1,1.0
3168,1e-05,-4e-05,-4e-05,-3e-05,2e-05,-1e-05,-1e-05,2e-05,1,1.0
3169,1e-05,-4e-05,-4e-05,-3e-05,2e-05,-1e-05,-1e-05,2e-05,1,1.0
3170,1e-05,-4e-05,-4e-05,-3e-05,2e-05,-1e-05,-1e-05,2e-05,1,1.0
3171,1e-05,-4e-05,-4e-05,-3e-05,2e-05,-1e-05,-1e-05,2e-05,1,1.0
3172,1e-05,-4e-05,-4e-05,-3e-05,2e-05,-1e-05,-1e-05,2e-05,1,1.0
3173,1e-05,-4e-05,-4e-05,-3e-05,2e-05,-1e-05,-1e-05,2e-05,1,1.0
3174,-4e-05,-1e-05,-9e-05,-2e-05,-2e-05,-3e-05,0.0,-1e-05,1,1.0
3175,-1e-05,-3e-05,1e-05,-3e-05,-2e-05,-1e-05,-1e-05,1e-05,1,1.0
3176,-1e-05,-3e-05,1e-05,-3e-05,-2e-05,-1e-05,-1e-05,1e-05,1,1.0
3177,-1e-05,-3e-05,1e-05,-3e-05,-2e-05,-1e-05,-1e-05,1e-05,1,1.0
3178,-1e-05,-3e-05,1e-05,-3e-05,-2e-05,-1e-05,-1e-05,1e-05,1,1.0
3179,-1e-05,-3e-05,1e-05,-3e-05,-2e-05,-1e-05,-1e-05,1e-05,1,1.0
3180,-1e-05,-3e-05,1e-05,-3e-05,-2e-05,-1e-05,-1e-05,1e-05,1,1.0
3181,-1e-05,-3e-05,1e-05,-3e-05,-2e-05,-1e-05,-1e-05,1e-05,1,1.0
3182,-1e-05,-3e-05,1e-05,-3e-05,-2e-05,-1e-05,-1e-05,1e-05,1,1.0
3183,-1e-05,-3e-05,1e-05,-3e-05,-2e-05,-1e-05,-1e-05,1e-05,1,1.0
3184,-1e-05,-3e-05,1e-05,-3e-05,-2e-05,-1e-05,-1e-05,1e-05,1,1.0
3185,-1e-05,-3e-05,1e-05,-3e-05,-2e-05,-1e-05,-1e-05,1e-05,1,1.0
3186,-1e-05,-3e-05,1e-05,-3e-05,-2e-05,-1e-05,-1e-05,1e-05,1,1.0
3189,-1e-05,-3e-05,1e-05,-3e-05,-2e-05,-1e-05,-1e-05,1e-05,1,1.0
3190,-1e-05,-3e-05,1e-05,-3e-05,-2e-05,-1e-05,-1e-05,1e-05,1,1.0
3191,-1e-05,-3e-05,1e-05,-3e-05,-2e-05,-1e-05,-1e-05,1e-05,1,1.0
3192,-1e-05,-3e-05,1e-05,-3e-05,-2e-05,-1e-05,-1e-05,1e-05,1,1.0
3193,-1e-05,-3e-05,1e-05,-3e-05,-2e-05,-1e-05,-1e-05,1e-05,1,1.0
3194,-1e-05,-3e-05,1e-05,-3e-05,-2e-05,-1e-05,-1e-05,1e-05,1,1.0
3195,-1e-05,-3e-05,1e-05,-3e-05,-2e-05,-1e-05,-1e-05,1e-05,1,1.0
3196,-1e-05,-3e-05,1e-05,-3e-05,-2e-05,-1e-05,-1e-05,1e-05,1,1.0
3197,1e-05,1e-05,2e-05,0.0,-2e-05,-1e-05,-2e-05,0.0,1,1.0
3198,-3e-05,-5e-05,-0.00011,-3e-05,0.0,-1e-05,-3e-05,-3e-05,1,1.0
3199,-3e-05,-5e-05,-0.00011,-3e-05,0.0,-1e-05,-3e-05,-3e-05,1,1.0
3200,-3e-05,-5e-05,-0.00011,-3e-05,0.0,-1e-05,-3e-05,-3e-05,1,1.0
3201,-3e-05,-5e-05,-0.00011,-3e-05,0.0,-1e-05,-3e-05,-3e-05,1,1.0
3202,-3e-05,-5e-05,-0.00011,-3e-05,0.0,-1e-05,-3e-05,-3e-05,1,1.0
3203,-3e-05,-5e-05,-0.00011,-3e-05,0.0,-1e-05,-3e-05,-3e-05,1,1.0
3204,-3e-05,-5e-05,-0.00011,-3e-05,0.0,-1e-05,-3e-05,-3e-05,1,1.0
3205,-3e-05,-5e-05,-0.00011,-3e-05,0.0,-1e-05,-3e-05,-3e-05,1,1.0
3206,-3e-05,-5e-05,-0.00011,-3e-05,0.0,-1e-05,-3e-05,-3e-05,1,1.0
3207,-3e-05,-5e-05,-0.00011,-3e-05,0.0,-1e-05,-3e-05,-3e-05,1,1.0
3208,-3e-05,-5e-05,-0.00011,-3e-05,0.0,-1e-05,-3e-05,-3e-05,1,1.0
3209,-3e-05,-5e-05,-0.00011,-3e-05,0.0,-1e-05,-3e-05,-3e-05,1,1.0
3210,-3e-05,-5e-05,-0.00011,-3e-05,0.0,-1e-05,-3e-05,-3e-05,1,1.0
3211,-1e-05,-6e-05,-0.00017,-7e-05,1e-05,0.0,-1e-05,-1e-05,1,1.0
3212,0.0,2e-05,-1e-05,-3e-05,-1e-05,1e-05,1e-05,-2e-05,1,1.0
3213,0.0,2e-05,-1e-05,-3e-05,-1e-05,1e-05,1e-05,-2e-05,1,1.0
3214,0.0,2e-05,-1e-05,-3e-05,-1e-05,1e-05,1e-05,-2e-05,1,1.0
3215,0.0,2e-05,-1e-05,-3e-05,-1e-05,1e-05,1e-05,-2e-05,1,1.0
3216,0.0,2e-05,-1e-05,-3e-05,-1e-05,1e-05,1e-05,-2e-05,1,1.0
3217,0.0,2e-05,-1e-05,-3e-05,-1e-05,1e-05,1e-05,-2e-05,1,1.0
3218,0.0,2e-05,-1e-05,-3e-05,-1e-05,1e-05,1e-05,-2e-05,1,1.0
3219,0.0,2e-05,-1e-05,-3e-05,-1e-05,1e-05,1e-05,-2e-05,1,1.0
3220,0.0,2e-05,-1e-05,-3e-05,-1e-05,1e-05,1e-05,-2e-05,1,1.0
3221,0.0,2e-05,-1e-05,-3e-05,-1e-05,1e-05,1e-05,-2e-05,1,1.0
3222,0.0,2e-05,-1e-05,-3e-05,-1e-05,1e-05,1e-05,-2e-05,1,1.0
3223,0.0,2e-05,-1e-05,-3e-05,-1e-05,1e-05,1e-05,-2e-05,1,1.0
3224,0.0,2e-05,-1e-05,-3e-05,-1e-05,1e-05,1e-05,-2e-05,1,1.0
3225,0.0,2e-05,-1e-05,-3e-05,-1e-05,1e-05,1e-05,-2e-05,1,1.0
3226,0.0,2e-05,-1e-05,-3e-05,-1e-05,1e-05,1e-05,-2e-05,1,1.0
3227,0.0,2e-05,-1e-05,-3e-05,-1e-05,1e-05,1e-05,-2e-05,1,1.0
3228,0.0,2e-05,-1e-05,-3e-05,-1e-05,1e-05,1e-05,-2e-05,1,1.0
3229,0.0,2e-05,-1e-05,-3e-05,-1e-05,1e-05,1e-05,-2e-05,1,1.0
3230,0.0,2e-05,-1e-05,-3e-05,-1e-05,1e-05,1e-05,-2e-05,1,1.0
3231,0.0,2e-05,-1e-05,-3e-05,-1e-05,1e-05,1e-05,-2e-05,1,1.0
3232,0.0,2e-05,-1e-05,-3e-05,-1e-05,1e-05,1e-05,-2e-05,1,1.0
3233,0.0,2e-05,-1e-05,-3e-05,-1e-05,1e-05,1e-05,-2e-05,1,1.0
3234,1e-05,-5e-05,-9e-05,-6e-05,-1e-05,0.0,0.0,-1e-05,1,1.0
3235,-2e-05,-2e-05,-0.00014,-6e-05,-1e-05,-4e-05,-3e-05,-4e-05,1,1.0
3236,-2e-05,-2e-05,-0.00014,-6e-05,-1e-05,-4e-05,-3e-05,-4e-05,1,1.0
3239,-2e-05,-2e-05,-0.00014,-6e-05,-1e-05,-4e-05,-3e-05,-4e-05,1,1.0
3240,-2e-05,-2e-05,-0.00014,-6e-05,-1e-05,-4e-05,-3e-05,-4e-05,1,1.0
3241,-2e-05,-2e-05,-0.00014,-6e-05,-1e-05,-4e-05,-3e-05,-4e-05,1,1.0
3242,-2e-05,-2e-05,-0.00014,-6e-05,-1e-05,-4e-05,-3e-05,-4e-05,1,1.0
3243,-2e-05,-2e-05,-0.00014,-6e-05,-1e-05,-4e-05,-3e-05,-4e-05,1,1.0
3244,-2e-05,-2e-05,-0.00014,-6e-05,-1e-05,-4e-05,-3e-05,-4e-05,1,1.0
3245,-2e-05,-2e-05,-0.00014,-6e-05,-1e-05,-4e-05,-3e-05,-4e-05,1,1.0
3246,-2e-05,-2e-05,-0.00014,-6e-05,-1e-05,-4e-05,-3e-05,-4e-05,1,1.0
3247,-2e-05,-2e-05,-0.00014,-6e-05,-1e-05,-4e-05,-3e-05,-4e-05,1,1.0
3248,-2e-05,-2e-05,-0.00014,-6e-05,-1e-05,-4e-05,-3e-05,-4e-05,1,1.0
3249,-2e-05,-2e-05,-0.00014,-6e-05,-1e-05,-4e-05,-3e-05,-4e-05,1,1.0
3250,-2e-05,-2e-05,-0.00014,-6e-05,-1e-05,-4e-05,-3e-05,-4e-05,1,1.0
3251,-2e-05,-2e-05,-0.00014,-6e-05,-1e-05,-4e-05,-3e-05,-4e-05,1,1.0
3252,-2e-05,-2e-05,-0.00014,-6e-05,-1e-05,-4e-05,-3e-05,-4e-05,1,1.0
3253,-2e-05,-2e-05,-0.00014,-6e-05,-1e-05,-4e-05,-3e-05,-4e-05,1,1.0
3254,-2e-05,-2e-05,-0.00014,-6e-05,-1e-05,-4e-05,-3e-05,-4e-05,1,1.0
3255,-2e-05,-2e-05,-0.00014,-6e-05,-1e-05,-4e-05,-3e-05,-4e-05,1,1.0
3256,-2e-05,-2e-05,-0.00014,-6e-05,-1e-05,-4e-05,-3e-05,-4e-05,1,1.0
3257,0.0,3e-05,0.00025,9e-05,-1e-05,0.0,0.0,0.0,1,1.0
3258,-2e-05,-4e-05,-0.00011,-5e-05,-2e-05,0.0,-1e-05,0.0,1,1.0
3259,-2e-05,-4e-05,-0.00011,-5e-05,-2e-05,0.0,-1e-05,0.0,1,1.0
3260,-2e-05,-4e-05,-0.00011,-5e-05,-2e-05,0.0,-1e-05,0.0,1,1.0
3261,-2e-05,-4e-05,-0.00011,-5e-05,-2e-05,0.0,-1e-05,0.0,1,1.0
3262,-2e-05,-4e-05,-0.00011,-5e-05,-2e-05,0.0,-1e-05,0.0,1,1.0
3263,-2e-05,-4e-05,-0.00011,-5e-05,-2e-05,0.0,-1e-05,0.0,1,1.0
3264,-2e-05,-4e-05,-0.00011,-5e-05,-2e-05,0.0,-1e-05,0.0,1,1.0
3265,-2e-05,-4e-05,-0.00011,-5e-05,-2e-05,0.0,-1e-05,0.0,1,1.0
3266,-2e-05,-4e-05,-0.00011,-5e-05,-2e-05,0.0,-1e-05,0.0,1,1.0
3267,-2e-05,-4e-05,-0.00011,-5e-05,-2e-05,0.0,-1e-05,0.0,1,1.0
3268,-2e-05,-4e-05,-0.00011,-5e-05,-2e-05,0.0,-1e-05,0.0,1,1.0
3269,-2e-05,-4e-05,-0.00011,-5e-05,-2e-05,0.0,-1e-05,0.0,1,1.0
3270,-2e-05,-4e-05,-0.00011,-5e-05,-2e-05,0.0,-1e-05,0.0,1,1.0
3271,1e-05,6e-05,0.00014,2e-05,-3e-05,-3e-05,0.0,-1e-05,1,1.0
3272,-1e-05,-2e-05,-2e-05,2e-05,-2e-05,2e-05,0.0,2e-05,1,1.0
3273,-1e-05,-2e-05,-2e-05,2e-05,-2e-05,2e-05,0.0,2e-05,1,1.0
3274,-1e-05,-2e-05,-2e-05,2e-05,-2e-05,2e-05,0.0,2e-05,1,1.0
3275,-1e-05,-2e-05,-2e-05,2e-05,-2e-05,2e-05,0.0,2e-05,1,1.0
3276,-1e-05,-2e-05,-2e-05,2e-05,-2e-05,2e-05,0.0,2e-05,1,1.0
3277,-1e-05,-2e-05,-2e-05,2e-05,-2e-05,2e-05,0.0,2e-05,1,1.0
3278,-1e-05,-2e-05,-2e-05,2e-05,-2e-05,2e-05,0.0,2e-05,1,1.0
3279,-1e-05,-2e-05,-2e-05,2e-05,-2e-05,2e-05,0.0,2e-05,1,1.0
3280,-1e-05,-2e-05,-2e-05,2e-05,-2e-05,2e-05,0.0,2e-05,1,1.0
3281,-1e-05,-2e-05,-2e-05,2e-05,-2e-05,2e-05,0.0,2e-05,1,1.0
3282,-1e-05,-2e-05,-2e-05,2e-05,-2e-05,2e-05,0.0,2e-05,1,1.0
3283,-1e-05,-2e-05,-2e-05,2e-05,-2e-05,2e-05,0.0,2e-05,1,1.0
3284,-1e-05,-2e-05,-2e-05,2e-05,-2e-05,2e-05,0.0,2e-05,1,1.0
3285,-1e-05,-2e-05,-2e-05,2e-05,-2e-05,2e-05,0.0,2e-05,1,1.0
3286,-1e-05,-2e-05,-2e-05,2e-05,-2e-05,2e-05,0.0,2e-05,1,1.0
3288,-1e-05,-2e-05,-2e-05,2e-05,-2e-05,2e-05,0.0,2e-05,1,1.0
3289,-1e-05,-2e-05,-2e-05,2e-05,-2e-05,2e-05,0.0,2e-05,1,1.0
3290,-1e-05,-2e-05,-2e-05,2e-05,-2e-05,2e-05,0.0,2e-05,1,1.0
3291,-1e-05,-2e-05,-2e-05,2e-05,-2e-05,2e-05,0.0,2e-05,1,1.0
3292,-1e-05,-2e-05,-2e-05,2e-05,-2e-05,2e-05,0.0,2e-05,1,1.0
3293,-1e-05,-2e-05,-2e-05,2e-05,-2e-05,2e-05,0.0,2e-05,1,1.0
3294,-1e-05,-2e-05,-2e-05,2e-05,-2e-05,2e-05,0.0,2e-05,1,1.0
3295,-1e-05,-2e-05,-2e-05,2e-05,-2e-05,2e-05,0.0,2e-05,1,1.0
3296,-1e-05,-2e-05,-2e-05,2e-05,-2e-05,2e-05,0.0,2e-05,1,1.0
3297,-1e-05,-2e-05,-2e-05,2e-05,-2e-05,2e-05,0.0,2e-05,1,1.0
3298,-1e-05,-2e-05,-2e-05,2e-05,-2e-05,2e-05,0.0,2e-05,1,1.0
3299,-1e-05,-2e-05,-2e-05,2e-05,-2e-05,2e-05,0.0,2e-05,1,1.0
3300,-1e-05,-2e-05,-2e-05,2e-05,-2e-05,2e-05,0.0,2e-05,1,1.0
3301,-1e-05,-2e-05,-2e-05,2e-05,-2e-05,2e-05,0.0,2e-05,1,1.0
3302,-2e-05,4e-05,0.00026,1e-05,-1e-05,3e-05,-1e-05,-4e-05,1,1.0
3303,-2e-05,2e-05,7e-05,3e-05,-3e-05,-2e-05,0.0,1e-05,1,1.0
3304,-2e-05,2e-05,7e-05,3e-05,-3e-05,-2e-05,0.0,1e-05,1,1.0
3305,-2e-05,2e-05,7e-05,3e-05,-3e-05,-2e-05,0.0,1e-05,1,1.0
3306,-2e-05,2e-05,7e-05,3e-05,-3e-05,-2e-05,0.0,1e-05,1,1.0
3307,-2e-05,2e-05,7e-05,3e-05,-3e-05,-2e-05,0.0,1e-05,1,1.0
3308,-2e-05,2e-05,7e-05,3e-05,-3e-05,-2e-05,0.0,1e-05,1,1.0
3309,-2e-05,2e-05,7e-05,3e-05,-3e-05,-2e-05,0.0,1e-05,1,1.0
3310,-2e-05,2e-05,7e-05,3e-05,-3e-05,-2e-05,0.0,1e-05,1,1.0
3311,-2e-05,2e-05,7e-05,3e-05,-3e-05,-2e-05,0.0,1e-05,1,1.0
3312,-2e-05,2e-05,7e-05,3e-05,-3e-05,-2e-05,0.0,1e-05,1,1.0
3313,-2e-05,2e-05,7e-05,3e-05,-3e-05,-2e-05,0.0,1e-05,1,1.0
3314,-2e-05,2e-05,7e-05,3e-05,-3e-05,-2e-05,0.0,1e-05,1,1.0
3315,-2e-05,2e-05,7e-05,3e-05,-3e-05,-2e-05,0.0,1e-05,1,1.0
3316,-2e-05,2e-05,7e-05,3e-05,-3e-05,-2e-05,0.0,1e-05,1,1.0
3317,-2e-05,-4e-05,1e-05,-4e-05,1e-05,-2e-05,0.0,-1e-05,1,1.0
3318,-2e-05,-2e-05,-0.00012,3e-05,-2e-05,0.0,1e-05,1e-05,1,1.0
3319,-2e-05,-2e-05,-0.00012,3e-05,-2e-05,0.0,1e-05,1e-05,1,1.0
3320,-2e-05,-2e-05,-0.00012,3e-05,-2e-05,0.0,1e-05,1e-05,1,1.0
3321,-2e-05,-2e-05,-0.00012,3e-05,-2e-05,0.0,1e-05,1e-05,1,1.0
3322,-2e-05,-2e-05,-0.00012,3e-05,-2e-05,0.0,1e-05,1e-05,1,1.0
3323,-2e-05,-2e-05,-0.00012,3e-05,-2e-05,0.0,1e-05,1e-05,1,1.0
3324,-2e-05,-2e-05,-0.00012,3e-05,-2e-05,0.0,1e-05,1e-05,1,1.0
3325,-2e-05,-2e-05,-0.00012,3e-05,-2e-05,0.0,1e-05,1e-05,1,1.0
3326,-2e-05,-2e-05,-0.00012,3e-05,-2e-05,0.0,1e-05,1e-05,1,1.0
3327,-2e-05,-2e-05,-0.00012,3e-05,-2e-05,0.0,1e-05,1e-05,1,1.0
3328,-2e-05,-2e-05,-0.00012,3e-05,-2e-05,0.0,1e-05,1e-05,1,1.0
3329,-2e-05,-2e-05,-0.00012,3e-05,-2e-05,0.0,1e-05,1e-05,1,1.0
3330,-2e-05,-2e-05,-0.00012,3e-05,-2e-05,0.0,1e-05,1e-05,1,1.0
3331,-2e-05,-2e-05,-0.00012,3e-05,-2e-05,0.0,1e-05,1e-05,1,1.0
3332,-2e-05,-1e-05,-7e-05,0.0,0.0,-2e-05,-1e-05,-1e-05,1,1.0
3333,-3e-05,-3e-05,-3e-05,-4e-05,-3e-05,0.0,-2e-05,-3e-05,1,1.0
3334,-3e-05,-3e-05,-3e-05,-4e-05,-3e-05,0.0,-2e-05,-3e-05,1,1.0
3335,-3e-05,-3e-05,-3e-05,-4e-05,-3e-05,0.0,-2e-05,-3e-05,1,1.0
3336,-3e-05,-3e-05,-3e-05,-4e-05,-3e-05,0.0,-2e-05,-3e-05,1,1.0
3339,-3e-05,-3e-05,-3e-05,-4e-05,-3e-05,0.0,-2e-05,-3e-05,1,1.0
3340,-3e-05,-3e-05,-3e-05,-4e-05,-3e-05,0.0,-2e-05,-3e-05,1,1.0
3341,-3e-05,-3e-05,-3e-05,-4e-05,-3e-05,0.0,-2e-05,-3e-05,1,1.0
3342,-3e-05,-3e-05,-3e-05,-4e-05,-3e-05,0.0,-2e-05,-3e-05,1,1.0
3343,-3e-05,-3e-05,-3e-05,-4e-05,-3e-05,0.0,-2e-05,-3e-05,1,1.0
3344,-3e-05,-3e-05,-3e-05,-4e-05,-3e-05,0.0,-2e-05,-3e-05,1,1.0
3345,-3e-05,-3e-05,-3e-05,-4e-05,-3e-05,0.0,-2e-05,-3e-05,1,1.0
3346,-3e-05,-3e-05,-3e-05,-4e-05,-3e-05,0.0,-2e-05,-3e-05,1,1.0
3347,-3e-05,-3e-05,-3e-05,-4e-05,-3e-05,0.0,-2e-05,-3e-05,1,1.0
3348,-3e-05,-3e-05,-3e-05,-4e-05,-3e-05,0.0,-2e-05,-3e-05,1,1.0
3349,-3e-05,-3e-05,-3e-05,-4e-05,-3e-05,0.0,-2e-05,-3e-05,1,1.0
3350,-3e-05,-3e-05,-3e-05,-4e-05,-3e-05,0.0,-2e-05,-3e-05,1,1.0
3351,-3e-05,-3e-05,-3e-05,-4e-05,-3e-05,0.0,-2e-05,-3e-05,1,1.0
3352,-3e-05,-3e-05,-3e-05,-4e-05,-3e-05,0.0,-2e-05,-3e-05,1,1.0
3353,-3e-05,-3e-05,-3e-05,-4e-05,-3e-05,0.0,-2e-05,-3e-05,1,1.0
3354,-3e-05,-3e-05,-3e-05,-4e-05,-3e-05,0.0,-2e-05,-3e-05,1,1.0
3355,-3e-05,-3e-05,-3e-05,-4e-05,-3e-05,0.0,-2e-05,-3e-05,1,1.0
3356,-3e-05,-3e-05,-3e-05,-4e-05,-3e-05,0.0,-2e-05,-3e-05,1,1.0
3357,-3e-05,-3e-05,-3e-05,-4e-05,-3e-05,0.0,-2e-05,-3e-05,1,1.0
3358,-3e-05,-3e-05,-3e-05,-4e-05,-3e-05,0.0,-2e-05,-3e-05,1,1.0
3359,-3e-05,-3e-05,-3e-05,-4e-05,-3e-05,0.0,-2e-05,-3e-05,1,1.0
3360,-3e-05,-3e-05,-3e-05,-4e-05,-3e-05,0.0,-2e-05,-3e-05,1,1.0
3361,-3e-05,-3e-05,-3e-05,-4e-05,-3e-05,0.0,-2e-05,-3e-05,1,1.0
3362,0.0,0.0,1e-05,1e-05,2e-05,0.0,-1e-05,2e-05,1,1.0
3363,-2e-05,3e-05,8e-05,-1e-05,1e-05,-1e-05,-1e-05,-3e-05,1,1.0
3364,-2e-05,3e-05,8e-05,-1e-05,1e-05,-1e-05,-1e-05,-3e-05,1,1.0
3365,-2e-05,3e-05,8e-05,-1e-05,1e-05,-1e-05,-1e-05,-3e-05,1,1.0
3366,-2e-05,3e-05,8e-05,-1e-05,1e-05,-1e-05,-1e-05,-3e-05,1,1.0
3367,-2e-05,3e-05,8e-05,-1e-05,1e-05,-1e-05,-1e-05,-3e-05,1,1.0
3368,-2e-05,3e-05,8e-05,-1e-05,1e-05,-1e-05,-1e-05,-3e-05,1,1.0
3369,-2e-05,3e-05,8e-05,-1e-05,1e-05,-1e-05,-1e-05,-3e-05,1,1.0
3370,-2e-05,3e-05,8e-05,-1e-05,1e-05,-1e-05,-1e-05,-3e-05,1,1.0
3371,-2e-05,3e-05,8e-05,-1e-05,1e-05,-1e-05,-1e-05,-3e-05,1,1.0
3372,-2e-05,3e-05,8e-05,-1e-05,1e-05,-1e-05,-1e-05,-3e-05,1,1.0
3373,-2e-05,3e-05,8e-05,-1e-05,1e-05,-1e-05,-1e-05,-3e-05,1,1.0
3374,-2e-05,3e-05,8e-05,-1e-05,1e-05,-1e-05,-1e-05,-3e-05,1,1.0
3375,-2e-05,3e-05,8e-05,-1e-05,1e-05,-1e-05,-1e-05,-3e-05,1,1.0
3376,-2e-05,3e-05,8e-05,-1e-05,1e-05,-1e-05,-1e-05,-3e-05,1,1.0
3377,1e-05,-3e-05,-3e-05,-4e-05,-1e-05,-2e-05,-1e-05,-1e-05,1,1.0
3378,-1e-05,-2e-05,-5e-05,-3e-05,0.0,-1e-05,-1e-05,0.0,1,1.0
3379,-1e-05,-2e-05,-5e-05,-3e-05,0.0,-1e-05,-1e-05,0.0,1,1.0
3380,-1e-05,-2e-05,-5e-05,-3e-05,0.0,-1e-05,-1e-05,0.0,1,1.0
3381,-1e-05,-2e-05,-5e-05,-3e-05,0.0,-1e-05,-1e-05,0.0,1,1.0
3382,-1e-05,-2e-05,-5e-05,-3e-05,0.0,-1e-05,-1e-05,0.0,1,1.0
3383,-1e-05,-2e-05,-5e-05,-3e-05,0.0,-1e-05,-1e-05,0.0,1,1.0
3384,-1e-05,-2e-05,-5e-05,-3e-05,0.0,-1e-05,-1e-05,0.0,1,1.0
3385,-1e-05,-2e-05,-5e-05,-3e-05,0.0,-1e-05,-1e-05,0.0,1,1.0
3386,-1e-05,-2e-05,-5e-05,-3e-05,0.0,-1e-05,-1e-05,0.0,1,1.0
3389,-1e-05,-2e-05,-5e-05,-3e-05,0.0,-1e-05,-1e-05,0.0,1,1.0
3390,-1e-05,-2e-05,-5e-05,-3e-05,0.0,-1e-05,-1e-05,0.0,1,1.0
3391,-2e-05,-2e-05,3e-05,1e-05,-2e-05,-1e-05,0.0,1e-05,1,1.0
3392,1e-05,-1e-05,8e-05,-4e-05,-1e-05,0.0,0.0,0.0,1,1.0
3393,1e-05,-1e-05,8e-05,-4e-05,-1e-05,0.0,0.0,0.0,1,1.0
3394,1e-05,-1e-05,8e-05,-4e-05,-1e-05,0.0,0.0,0.0,1,1.0
3395,1e-05,-1e-05,8e-05,-4e-05,-1e-05,0.0,0.0,0.0,1,1.0
3396,1e-05,-1e-05,8e-05,-4e-05,-1e-05,0.0,0.0,0.0,1,1.0
3397,1e-05,-1e-05,8e-05,-4e-05,-1e-05,0.0,0.0,0.0,1,1.0
3398,1e-05,-1e-05,8e-05,-4e-05,-1e-05,0.0,0.0,0.0,1,1.0
3399,1e-05,-1e-05,8e-05,-4e-05,-1e-05,0.0,0.0,0.0,1,1.0
3400,1e-05,-1e-05,8e-05,-4e-05,-1e-05,0.0,0.0,0.0,1,1.0
3401,1e-05,-1e-05,8e-05,-4e-05,-1e-05,0.0,0.0,0.0,1,1.0
3402,1e-05,-1e-05,8e-05,-4e-05,-1e-05,0.0,0.0,0.0,1,1.0
3403,1e-05,-1e-05,8e-05,-4e-05,-1e-05,0.0,0.0,0.0,1,1.0
3404,1e-05,-1e-05,8e-05,-4e-05,-1e-05,0.0,0.0,0.0,1,1.0
3405,1e-05,-1e-05,8e-05,-4e-05,-1e-05,0.0,0.0,0.0,1,1.0
3406,1e-05,-1e-05,8e-05,-4e-05,-1e-05,0.0,0.0,0.0,1,1.0
3407,1e-05,-1e-05,8e-05,-4e-05,-1e-05,0.0,0.0,0.0,1,1.0
3408,1e-05,-1e-05,8e-05,-4e-05,-1e-05,0.0,0.0,0.0,1,1.0
3409,1e-05,-1e-05,8e-05,-4e-05,-1e-05,0.0,0.0,0.0,1,1.0
3410,1e-05,-1e-05,8e-05,-4e-05,-1e-05,0.0,0.0,0.0,1,1.0
3411,1e-05,-1e-05,8e-05,-4e-05,-1e-05,0.0,0.0,0.0,1,1.0
3412,1e-05,-1e-05,8e-05,-4e-05,-1e-05,0.0,0.0,0.0,1,1.0
3413,1e-05,-1e-05,8e-05,-4e-05,-1e-05,0.0,0.0,0.0,1,1.0
3414,1e-05,0.0,-4e-05,-1e-05,-1e-05,0.0,-1e-05,-1e-05,1,1.0
3415,-2e-05,-4e-05,-9e-05,-4e-05,0.0,-3e-05,0.0,-3e-05,1,1.0
3416,-2e-05,-4e-05,-9e-05,-4e-05,0.0,-3e-05,0.0,-3e-05,1,1.0
3417,-2e-05,-4e-05,-9e-05,-4e-05,0.0,-3e-05,0.0,-3e-05,1,1.0
3418,-2e-05,-4e-05,-9e-05,-4e-05,0.0,-3e-05,0.0,-3e-05,1,1.0
3419,-2e-05,-4e-05,-9e-05,-4e-05,0.0,-3e-05,0.0,-3e-05,1,1.0
3420,-2e-05,-4e-05,-9e-05,-4e-05,0.0,-3e-05,0.0,-3e-05,1,1.0
3421,-2e-05,-4e-05,-9e-05,-4e-05,0.0,-3e-05,0.0,-3e-05,1,1.0
3422,-2e-05,-4e-05,-9e-05,-4e-05,0.0,-3e-05,0.0,-3e-05,1,1.0
3423,-2e-05,-4e-05,-9e-05,-4e-05,0.0,-3e-05,0.0,-3e-05,1,1.0
3424,-2e-05,-4e-05,-9e-05,-4e-05,0.0,-3e-05,0.0,-3e-05,1,1.0
3425,-2e-05,-4e-05,-9e-05,-4e-05,0.0,-3e-05,0.0,-3e-05,1,1.0
3426,-2e-05,-4e-05,-9e-05,-4e-05,0.0,-3e-05,0.0,-3e-05,1,1.0
3427,-2e-05,-4e-05,-9e-05,-4e-05,0.0,-3e-05,0.0,-3e-05,1,1.0
3428,-2e-05,-4e-05,-9e-05,-4e-05,0.0,-3e-05,0.0,-3e-05,1,1.0
3429,-2e-05,-4e-05,-9e-05,-4e-05,0.0,-3e-05,0.0,-3e-05,1,1.0
3430,-2e-05,-4e-05,-9e-05,-4e-05,0.0,-3e-05,0.0,-3e-05,1,1.0
3431,-2e-05,-4e-05,-9e-05,-4e-05,0.0,-3e-05,0.0,-3e-05,1,1.0
3432,-2e-05,-4e-05,-9e-05,-4e-05,0.0,-3e-05,0.0,-3e-05,1,1.0
3433,-2e-05,-4e-05,-9e-05,-4e-05,0.0,-3e-05,0.0,-3e-05,1,1.0
3434,-2e-05,-4e-05,-9e-05,-4e-05,0.0,-3e-05,0.0,-3e-05,1,1.0
3435,-2e-05,-4e-05,-9e-05,-4e-05,0.0,-3e-05,0.0,-3e-05,1,1.0
3436,-2e-05,-4e-05,-9e-05,-4e-05,0.0,-3e-05,0.0,-3e-05,1,1.0
3439,0.0,1e-05,7e-05,3e-05,0.0,1e-05,-1e-05,-1e-05,1,1.0
3440,0.0,1e-05,7e-05,3e-05,0.0,1e-05,-1e-05,-1e-05,1,1.0
3441,0.0,1e-05,7e-05,3e-05,0.0,1e-05,-1e-05,-1e-05,1,1.0
3442,0.0,1e-05,7e-05,3e-05,0.0,1e-05,-1e-05,-1e-05,1,1.0
3443,0.0,1e-05,7e-05,3e-05,0.0,1e-05,-1e-05,-1e-05,1,1.0
3444,0.0,1e-05,7e-05,3e-05,0.0,1e-05,-1e-05,-1e-05,1,1.0
3445,0.0,1e-05,7e-05,3e-05,0.0,1e-05,-1e-05,-1e-05,1,1.0
3446,0.0,1e-05,7e-05,3e-05,0.0,1e-05,-1e-05,-1e-05,1,1.0
3447,0.0,1e-05,7e-05,3e-05,0.0,1e-05,-1e-05,-1e-05,1,1.0
3448,0.0,1e-05,7e-05,3e-05,0.0,1e-05,-1e-05,-1e-05,1,1.0
3449,0.0,1e-05,7e-05,3e-05,0.0,1e-05,-1e-05,-1e-05,1,1.0
3450,0.0,1e-05,7e-05,3e-05,0.0,1e-05,-1e-05,-1e-05,1,1.0
3451,-2e-05,-8e-05,-0.00032,-1e-05,-1e-05,0.0,-2e-05,0.0,1,1.0
3452,2e-05,0.0,-0.00016,-8e-05,-2e-05,-4e-05,0.0,0.0,1,1.0
3453,2e-05,0.0,-0.00016,-8e-05,-2e-05,-4e-05,0.0,0.0,1,1.0
3454,2e-05,0.0,-0.00016,-8e-05,-2e-05,-4e-05,0.0,0.0,1,1.0
3455,2e-05,0.0,-0.00016,-8e-05,-2e-05,-4e-05,0.0,0.0,1,1.0
3456,2e-05,0.0,-0.00016,-8e-05,-2e-05,-4e-05,0.0,0.0,1,1.0
3457,2e-05,0.0,-0.00016,-8e-05,-2e-05,-4e-05,0.0,0.0,1,1.0
3458,2e-05,0.0,-0.00016,-8e-05,-2e-05,-4e-05,0.0,0.0,1,1.0
3459,2e-05,0.0,-0.00016,-8e-05,-2e-05,-4e-05,0.0,0.0,1,1.0
3460,2e-05,0.0,-0.00016,-8e-05,-2e-05,-4e-05,0.0,0.0,1,1.0
3461,2e-05,0.0,-0.00016,-8e-05,-2e-05,-4e-05,0.0,0.0,1,1.0
3462,2e-05,0.0,-0.00016,-8e-05,-2e-05,-4e-05,0.0,0.0,1,1.0
3463,2e-05,0.0,-0.00016,-8e-05,-2e-05,-4e-05,0.0,0.0,1,1.0
3464,2e-05,0.0,-0.00016,-8e-05,-2e-05,-4e-05,0.0,0.0,1,1.0
3465,2e-05,0.0,-0.00016,-8e-05,-2e-05,-4e-05,0.0,0.0,1,1.0
3466,2e-05,0.0,-0.00016,-8e-05,-2e-05,-4e-05,0.0,0.0,1,1.0
3467,2e-05,0.0,-0.00016,-8e-05,-2e-05,-4e-05,0.0,0.0,1,1.0
3468,2e-05,0.0,-0.00016,-8e-05,-2e-05,-4e-05,0.0,0.0,1,1.0
3469,2e-05,0.0,-0.00016,-8e-05,-2e-05,-4e-05,0.0,0.0,1,1.0
3470,2e-05,0.0,-0.00016,-8e-05,-2e-05,-4e-05,0.0,0.0,1,1.0
3471,2e-05,0.0,-0.00016,-8e-05,-2e-05,-4e-05,0.0,0.0,1,1.0
3472,2e-05,0.0,-0.00016,-8e-05,-2e-05,-4e-05,0.0,0.0,1,1.0
3473,2e-05,0.0,-0.00016,-8e-05,-2e-05,-4e-05,0.0,0.0,1,1.0
3474,0.0,0.0,3e-05,7e-05,3e-05,2e-05,1e-05,-1e-05,1,1.0
3475,-1e-05,-2e-05,0.0,1e-05,0.0,-2e-05,-1e-05,1e-05,1,1.0
3476,-1e-05,-2e-05,0.0,1e-05,0.0,-2e-05,-1e-05,1e-05,1,1.0
3477,-1e-05,-2e-05,0.0,1e-05,0.0,-2e-05,-1e-05,1e-05,1,1.0
3478,-1e-05,-2e-05,0.0,1e-05,0.0,-2e-05,-1e-05,1e-05,1,1.0
3479,-1e-05,-2e-05,0.0,1e-05,0.0,-2e-05,-1e-05,1e-05,1,1.0
3480,-1e-05,-2e-05,0.0,1e-05,0.0,-2e-05,-1e-05,1e-05,1,1.0
3481,-1e-05,-2e-05,0.0,1e-05,0.0,-2e-05,-1e-05,1e-05,1,1.0
3482,-1e-05,-2e-05,0.0,1e-05,0.0,-2e-05,-1e-05,1e-05,1,1.0
3483,-1e-05,-2e-05,0.0,1e-05,0.0,-2e-05,-1e-05,1e-05,1,1.0
3484,-1e-05,-2e-05,0.0,1e-05,0.0,-2e-05,-1e-05,1e-05,1,1.0
3485,-1e-05,-2e-05,0.0,1e-05,0.0,-2e-05,-1e-05,1e-05,1,1.0
3486,-1e-05,-2e-05,0.0,1e-05,0.0,-2e-05,-1e-05,1e-05,1,1.0
3489,-1e-05,-2e-05,0.0,1e-05,0.0,-2e-05,-1e-05,1e-05,1,1.0
3490,-1e-05,-2e-05,0.0,1e-05,0.0,-2e-05,-1e-05,1e-05,1,1.0
3491,-1e-05,-2e-05,0.0,1e-05,0.0,-2e-05,-1e-05,1e-05,1,1.0
3492,-1e-05,-2e-05,0.0,1e-05,0.0,-2e-05,-1e-05,1e-05,1,1.0
3493,-1e-05,-2e-05,0.0,1e-05,0.0,-2e-05,-1e-05,1e-05,1,1.0
3494,-1e-05,-2e-05,0.0,1e-05,0.0,-2e-05,-1e-05,1e-05,1,1.0
3495,-1e-05,-2e-05,0.0,1e-05,0.0,-2e-05,-1e-05,1e-05,1,1.0
3496,-1e-05,-2e-05,0.0,1e-05,0.0,-2e-05,-1e-05,1e-05,1,1.0
3497,-1e-05,-2e-05,-0.0001,-7e-05,-2e-05,-1e-05,-1e-05,-3e-05,1,1.0
3498,0.0,2e-05,7e-05,3e-05,-2e-05,0.0,-1e-05,1e-05,1,1.0
3499,0.0,2e-05,7e-05,3e-05,-2e-05,0.0,-1e-05,1e-05,1,1.0
3500,0.0,2e-05,7e-05,3e-05,-2e-05,0.0,-1e-05,1e-05,1,1.0
3501,0.0,2e-05,7e-05,3e-05,-2e-05,0.0,-1e-05,1e-05,1,1.0
3502,0.0,2e-05,7e-05,3e-05,-2e-05,0.0,-1e-05,1e-05,1,1.0
3503,0.0,2e-05,7e-05,3e-05,-2e-05,0.0,-1e-05,1e-05,1,1.0
3504,0.0,2e-05,7e-05,3e-05,-2e-05,0.0,-1e-05,1e-05,1,1.0
3505,0.0,2e-05,7e-05,3e-05,-2e-05,0.0,-1e-05,1e-05,1,1.0
3506,0.0,2e-05,7e-05,3e-05,-2e-05,0.0,-1e-05,1e-05,1,1.0
3507,0.0,2e-05,7e-05,3e-05,-2e-05,0.0,-1e-05,1e-05,1,1.0
3508,0.0,2e-05,7e-05,3e-05,-2e-05,0.0,-1e-05,1e-05,1,1.0
3509,0.0,2e-05,7e-05,3e-05,-2e-05,0.0,-1e-05,1e-05,1,1.0
3510,0.0,2e-05,7e-05,3e-05,-2e-05,0.0,-1e-05,1e-05,1,1.0
3511,-2e-05,-3e-05,-4e-05,-1e-05,0.0,1e-05,3e-05,-2e-05,1,1.0
3512,-2e-05,1e-05,-2e-05,-2e-05,-1e-05,-2e-05,0.0,-1e-05,1,1.0
3513,-2e-05,1e-05,-2e-05,-2e-05,-1e-05,-2e-05,0.0,-1e-05,1,1.0
3514,-2e-05,1e-05,-2e-05,-2e-05,-1e-05,-2e-05,0.0,-1e-05,1,1.0
3515,-2e-05,1e-05,-2e-05,-2e-05,-1e-05,-2e-05,0.0,-1e-05,1,1.0
3516,-2e-05,1e-05,-2e-05,-2e-05,-1e-05,-2e-05,0.0,-1e-05,1,1.0
3517,-2e-05,1e-05,-2e-05,-2e-05,-1e-05,-2e-05,0.0,-1e-05,1,1.0
3518,-2e-05,1e-05,-2e-05,-2e-05,-1e-05,-2e-05,0.0,-1e-05,1,1.0
3519,-2e-05,1e-05,-2e-05,-2e-05,-1e-05,-2e-05,0.0,-1e-05,1,1.0
3520,-2e-05,1e-05,-2e-05,-2e-05,-1e-05,-2e-05,0.0,-1e-05,1,1.0
3521,-2e-05,1e-05,-2e-05,-2e-05,-1e-05,-2e-05,0.0,-1e-05,1,1.0
3522,-2e-05,1e-05,-2e-05,-2e-05,-1e-05,-2e-05,0.0,-1e-05,1,1.0
3523,-2e-05,1e-05,-2e-05,-2e-05,-1e-05,-2e-05,0.0,-1e-05,1,1.0
3524,-2e-05,1e-05,-2e-05,-2e-05,-1e-05,-2e-05,0.0,-1e-05,1,1.0
3525,-2e-05,1e-05,-2e-05,-2e-05,-1e-05,-2e-05,0.0,-1e-05,1,1.0
3526,-2e-05,1e-05,-2e-05,-2e-05,-1e-05,-2e-05,0.0,-1e-05,1,1.0
3527,-2e-05,1e-05,-2e-05,-2e-05,-1e-05,-2e-05,0.0,-1e-05,1,1.0
3528,-2e-05,1e-05,-2e-05,-2e-05,-1e-05,-2e-05,0.0,-1e-05,1,1.0
3529,-2e-05,1e-05,-2e-05,-2e-05,-1e-05,-2e-05,0.0,-1e-05,1,1.0
3530,-2e-05,1e-05,-2e-05,-2e-05,-1e-05,-2e-05,0.0,-1e-05,1,1.0
3531,-2e-05,1e-05,-2e-05,-2e-05,-1e-05,-2e-05,0.0,-1e-05,1,1.0
3532,-2e-05,1e-05,-2e-05,-2e-05,-1e-05,-2e-05,0.0,-1e-05,1,1.0
3533,-2e-05,1e-05,-2e-05,-2e-05,-1e-05,-2e-05,0.0,-1e-05,1,1.0
3534,-2e-05,0.0,-9e-05,-7e-05,-2e-05,-1e-05,-2e-05,-1e-05,1,1.0
3535,0.0,-3e-05,-0.00012,-1e-05,-2e-05,1e-05,0.0,1e-05,1,1.0
3536,0.0,-3e-05,-0.00012,-1e-05,-2e-05,1e-05,0.0,1e-05,1,1.0
3538,0.0,-3e-05,-0.00012,-1e-05,-2e-05,1e-05,0.0,1e-05,1,1.0
3539,0.0,-3e-05,-0.00012,-1e-05,-2e-05,1e-05,0.0,1e-05,1,1.0
3540,0.0,-3e-05,-0.00012,-1e-05,-2e-05,1e-05,0.0,1e-05,1,1.0
3541,0.0,-3e-05,-0.00012,-1e-05,-2e-05,1e-05,0.0,1e-05,1,1.0
3542,0.0,-3e-05,-0.00012,-1e-05,-2e-05,1e-05,0.0,1e-05,1,1.0
3543,0.0,-3e-05,-0.00012,-1e-05,-2e-05,1e-05,0.0,1e-05,1,1.0
3544,0.0,-3e-05,-0.00012,-1e-05,-2e-05,1e-05,0.0,1e-05,1,1.0
3545,0.0,-3e-05,-0.00012,-1e-05,-2e-05,1e-05,0.0,1e-05,1,1.0
3546,0.0,-3e-05,-0.00012,-1e-05,-2e-05,1e-05,0.0,1e-05,1,1.0
3547,0.0,-3e-05,-0.00012,-1e-05,-2e-05,1e-05,0.0,1e-05,1,1.0
3548,0.0,-3e-05,-0.00012,-1e-05,-2e-05,1e-05,0.0,1e-05,1,1.0
3549,0.0,-3e-05,-0.00012,-1e-05,-2e-05,1e-05,0.0,1e-05,1,1.0
3550,0.0,-3e-05,-0.00012,-1e-05,-2e-05,1e-05,0.0,1e-05,1,1.0
3551,0.0,-3e-05,-0.00012,-1e-05,-2e-05,1e-05,0.0,1e-05,1,1.0
3552,0.0,-3e-05,-0.00012,-1e-05,-2e-05,1e-05,0.0,1e-05,1,1.0
3553,0.0,-3e-05,-0.00012,-1e-05,-2e-05,1e-05,0.0,1e-05,1,1.0
3554,0.0,-3e-05,-0.00012,-1e-05,-2e-05,1e-05,0.0,1e-05,1,1.0
3555,0.0,-3e-05,-0.00012,-1e-05,-2e-05,1e-05,0.0,1e-05,1,1.0
3556,0.0,-3e-05,-0.00012,-1e-05,-2e-05,1e-05,0.0,1e-05,1,1.0
3557,0.0,-1e-05,-8e-05,-1e-05,-1e-05,1e-05,-2e-05,-2e-05,1,1.0
3558,-2e-05,-4e-05,4e-05,-3e-05,-1e-05,0.0,-3e-05,-4e-05,1,1.0
3559,-2e-05,-4e-05,4e-05,-3e-05,-1e-05,0.0,-3e-05,-4e-05,1,1.0
3560,-2e-05,-4e-05,4e-05,-3e-05,-1e-05,0.0,-3e-05,-4e-05,1,1.0
3561,-2e-05,-4e-05,4e-05,-3e-05,-1e-05,0.0,-3e-05,-4e-05,1,1.0
3562,-2e-05,-4e-05,4e-05,-3e-05,-1e-05,0.0,-3e-05,-4e-05,1,1.0
3563,-2e-05,-4e-05,4e-05,-3e-05,-1e-05,0.0,-3e-05,-4e-05,1,1.0
3564,-2e-05,-4e-05,4e-05,-3e-05,-1e-05,0.0,-3e-05,-4e-05,1,1.0
5446,0.00016,0.00056,0.00016,0.00024,-0.00028,-0.00016,0.00054,0.00025,2,1.0
5447,0.00016,0.00056,0.00016,0.00024,-0.00028,-0.00016,0.00054,0.00025,2,1.0
5448,0.00016,0.00056,0.00016,0.00024,-0.00028,-0.00016,0.00054,0.00025,2,1.0
5449,0.00016,0.00056,0.00016,0.00024,-0.00028,-0.00016,0.00054,0.00025,2,1.0
5450,0.00016,0.00056,0.00016,0.00024,-0.00028,-0.00016,0.00054,0.00025,2,1.0
5451,0.00016,0.00056,0.00016,0.00024,-0.00028,-0.00016,0.00054,0.00025,2,1.0
5452,0.00016,0.00056,0.00016,0.00024,-0.00028,-0.00016,0.00054,0.00025,2,1.0
5453,0.00016,0.00056,0.00016,0.00024,-0.00028,-0.00016,0.00054,0.00025,2,1.0
5454,0.00016,0.00056,0.00016,0.00024,-0.00028,-0.00016,0.00054,0.00025,2,1.0
5455,0.00016,0.00056,0.00016,0.00024,-0.00028,-0.00016,0.00054,0.00025,2,1.0
5456,0.00016,0.00056,0.00016,0.00024,-0.00028,-0.00016,0.00054,0.00025,2,1.0
5457,0.00016,0.00056,0.00016,0.00024,-0.00028,-0.00016,0.00054,0.00025,2,1.0
5458,0.00016,0.00056,0.00016,0.00024,-0.00028,-0.00016,0.00054,0.00025,2,1.0
5459,0.00016,0.00056,0.00016,0.00024,-0.00028,-0.00016,0.00054,0.00025,2,1.0
5460,0.00016,0.00056,0.00016,0.00024,-0.00028,-0.00016,0.00054,0.00025,2,1.0
5461,0.00016,0.00056,0.00016,0.00024,-0.00028,-0.00016,0.00054,0.00025,2,1.0
5462,0.00043,-3e-05,0.00016,-1e-05,-0.00016,0.00053,0.00078,0.0003,2,1.0
5463,-0.0004,3e-05,0.00033,0.00045,-2e-05,0.00031,0.00019,0.00032,2,1.0
5464,-0.0004,3e-05,0.00033,0.00045,-2e-05,0.00031,0.00019,0.00032,2,1.0
5465,-0.0004,3e-05,0.00033,0.00045,-2e-05,0.00031,0.00019,0.00032,2,1.0
5466,-0.0004,3e-05,0.00033,0.00045,-2e-05,0.00031,0.00019,0.00032,2,1.0
5467,-0.0004,3e-05,0.00033,0.00045,-2e-05,0.00031,0.00019,0.00032,2,1.0
5468,-0.0004,3e-05,0.00033,0.00045,-2e-05,0.00031,0.00019,0.00032,2,1.0
5469,-0.0004,3e-05,0.00033,0.00045,-2e-05,0.00031,0.00019,0.00032,2,1.0
5470,-0.0004,3e-05,0.00033,0.00045,-2e-05,0.00031,0.00019,0.00032,2,1.0
5471,-0.0004,3e-05,0.00033,0.00045,-2e-05,0.00031,0.00019,0.00032,2,1.0
5472,-0.0004,3e-05,0.00033,0.00045,-2e-05,0.00031,0.00019,0.00032,2,1.0
5473,-0.0004,3e-05,0.00033,0.00045,-2e-05,0.00031,0.00019,0.00032,2,1.0
5474,-0.0004,3e-05,0.00033,0.00045,-2e-05,0.00031,0.00019,0.00032,2,1.0
5475,0.00024,0.00011,6e-05,-0.00025,-0.0002,0.0001,0.00014,-0.00012,2,1.0
5476,0.00044,-4e-05,0.00026,0.0005,0.00019,-7e-05,0.00012,0.0003,2,1.0
5477,0.00044,-4e-05,0.00026,0.0005,0.00019,-7e-05,0.00012,0.0003,2,1.0
5478,0.00044,-4e-05,0.00026,0.0005,0.00019,-7e-05,0.00012,0.0003,2,1.0
5479,0.00044,-4e-05,0.00026,0.0005,0.00019,-7e-05,0.00012,0.0003,2,1.0
5481,0.00044,-4e-05,0.00026,0.0005,0.00019,-7e-05,0.00012,0.0003,2,1.0
5482,0.00044,-4e-05,0.00026,0.0005,0.00019,-7e-05,0.00012,0.0003,2,1.0
5483,0.00044,-4e-05,0.00026,0.0005,0.00019,-7e-05,0.00012,0.0003,2,1.0
5484,0.00044,-4e-05,0.00026,0.0005,0.00019,-7e-05,0.00012,0.0003,2,1.0
5485,4e-05,4e-05,-0.00011,-0.00017,9e-05,-0.00015,-4e-05,-9e-05,2,1.0
5486,4e-05,4e-05,-0.00011,-0.00017,9e-05,-0.00015,-4e-05,-9e-05,2,1.0
5489,4e-05,4e-05,-0.00011,-0.00017,9e-05,-0.00015,-4e-05,-9e-05,2,1.0
5490,4e-05,4e-05,-0.00011,-0.00017,9e-05,-0.00015,-4e-05,-9e-05,2,1.0
5491,4e-05,4e-05,-0.00011,-0.00017,9e-05,-0.00015,-4e-05,-9e-05,2,1.0
5492,4e-05,4e-05,-0.00011,-0.00017,9e-05,-0.00015,-4e-05,-9e-05,2,1.0
5493,4e-05,4e-05,-0.00011,-0.00017,9e-05,-0.00015,-4e-05,-9e-05,2,1.0
5494,4e-05,4e-05,-0.00011,-0.00017,9e-05,-0.00015,-4e-05,-9e-05,2,1.0
5495,4e-05,4e-05,-0.00011,-0.00017,9e-05,-0.00015,-4e-05,-9e-05,2,1.0
5496,4e-05,4e-05,-0.00011,-0.00017,9e-05,-0.00015,-4e-05,-9e-05,2,1.0
5497,4e-05,4e-05,-0.00011,-0.00017,9e-05,-0.00015,-4e-05,-9e-05,2,1.0
5498,4e-05,4e-05,-0.00011,-0.00017,9e-05,-0.00015,-4e-05,-9e-05,2,1.0
5499,-0.00043,0.0002,6e-05,-3e-05,0.0002,0.0002,0.00058,3e-05,2,1.0
5500,-0.00043,0.0002,6e-05,-3e-05,0.0002,0.0002,0.00058,3e-05,2,1.0
5501,-0.00021,-8e-05,-0.00036,-0.00036,-7e-05,0.0001,-3e-05,-7e-05,2,1.0
5502,-0.00021,-8e-05,-0.00036,-0.00036,-7e-05,0.0001,-3e-05,-7e-05,2,1.0
5503,-0.00021,-8e-05,-0.00036,-0.00036,-7e-05,0.0001,-3e-05,-7e-05,2,1.0
5504,-0.00021,-8e-05,-0.00036,-0.00036,-7e-05,0.0001,-3e-05,-7e-05,2,1.0
5505,-0.00021,-8e-05,-0.00036,-0.00036,-7e-05,0.0001,-3e-05,-7e-05,2,1.0
5506,-0.00021,-8e-05,-0.00036,-0.00036,-7e-05,0.0001,-3e-05,-7e-05,2,1.0
5507,-0.00021,-8e-05,-0.00036,-0.00036,-7e-05,0.0001,-3e-05,-7e-05,2,1.0
5508,-0.00021,-8e-05,-0.00036,-0.00036,-7e-05,0.0001,-3e-05,-7e-05,2,1.0
5509,-0.00021,-8e-05,-0.00036,-0.00036,-7e-05,0.0001,-3e-05,-7e-05,2,1.0
5510,-0.00021,-8e-05,-0.00036,-0.00036,-7e-05,0.0001,-3e-05,-7e-05,2,1.0
5511,-0.00021,-8e-05,-0.00036,-0.00036,-7e-05,0.0001,-3e-05,-7e-05,2,1.0
5512,-0.00021,-8e-05,-0.00036,-0.00036,-7e-05,0.0001,-3e-05,-7e-05,2,1.0
5513,-0.00021,-8e-05,-0.00036,-0.00036,-7e-05,0.0001,-3e-05,-7e-05,2,1.0
5514,-0.00021,-8e-05,-0.00036,-0.00036,-7e-05,0.0001,-3e-05,-7e-05,2,1.0
5515,-0.00021,-8e-05,-0.00036,-0.00036,-7e-05,0.0001,-3e-05,-7e-05,2,1.0
5516,-0.00021,-8e-05,-0.00036,-0.00036,-7e-05,0.0001,-3e-05,-7e-05,2,1.0
5517,-0.00021,-8e-05,-0.00036,-0.00036,-7e-05,0.0001,-3e-05,-7e-05,2,1.0
5518,-0.00021,-8e-05,-0.00036,-0.00036,-7e-05,0.0001,-3e-05,-7e-05,2,1.0
5519,-0.00021,-8e-05,-0.00036,-0.00036,-7e-05,0.0001,-3e-05,-7e-05,2,1.0
5520,-0.00021,-8e-05,-0.00036,-0.00036,-7e-05,0.0001,-3e-05,-7e-05,2,1.0
5521,-0.00021,-8e-05,-0.00036,-0.00036,-7e-05,0.0001,-3e-05,-7e-05,2,1.0
5522,-0.00021,-8e-05,-0.00036,-0.00036,-7e-05,0.0001,-3e-05,-7e-05,2,1.0
5523,9e-05,0.00011,0.00021,0.00025,-0.00028,-0.00011,-0.00043,-1e-05,2,1.0
5524,0.0001,-0.00044,6e-05,-5e-05,-4e-05,-0.00018,-0.00084,-0.00021,2,1.0
5525,0.0001,-0.00044,6e-05,-5e-05,-4e-05,-0.00018,-0.00084,-0.00021,2,1.0
5526,0.0001,-0.00044,6e-05,-5e-05,-4e-05,-0.00018,-0.00084,-0.00021,2,1.0
5527,0.0001,-0.00044,6e-05,-5e-05,-4e-05,-0.00018,-0.00084,-0.00021,2,1.0
5528,0.0001,-0.00044,6e-05,-5e-05,-4e-05,-0.00018,-0.00084,-0.00021,2,1.0
5529,0.0001,-0.00044,6e-05,-5e-05,-4e-05,-0.00018,-0.00084,-0.00021,2,1.0
5530,0.0001,-0.00044,6e-05,-5e-05,-4e-05,-0.00018,-0.00084,-0.00021,2,1.0
5531,0.0001,-0.00044,6e-05,-5e-05,-4e-05,-0.00018,-0.00084,-0.00021,2,1.0
5532,0.0001,-0.00044,6e-05,-5e-05,-4e-05,-0.00018,-0.00084,-0.00021,2,1.0
5533,0.0001,-0.00044,6e-05,-5e-05,-4e-05,-0.00018,-0.00084,-0.00021,2,1.0
5534,0.0001,-0.00044,6e-05,-5e-05,-4e-05,-0.00018,-0.00084,-0.00021,2,1.0
5535,0.00059,0.00023,5e-05,0.00029,-1e-05,0.00023,-0.0007,0.0004,2,1.0
5536,0.00059,0.00023,5e-05,0.00029,-1e-05,0.00023,-0.0007,0.0004,2,1.0
5539,0.00059,0.00023,5e-05,0.00029,-1e-05,0.00023,-0.0007,0.0004,2,1.0
5540,0.00059,0.00023,5e-05,0.00029,-1e-05,0.00023,-0.0007,0.0004,2,1.0
5541,0.00059,0.00023,5e-05,0.00029,-1e-05,0.00023,-0.0007,0.0004,2,1.0
5542,0.00059,0.00023,5e-05,0.00029,-1e-05,0.00023,-0.0007,0.0004,2,1.0
5543,0.00059,0.00023,5e-05,0.00029,-1e-05,0.00023,-0.0007,0.0004,2,1.0
5544,0.00059,0.00023,5e-05,0.00029,-1e-05,0.00023,-0.0007,0.0004,2,1.0
5545,0.00059,0.00023,5e-05,0.00029,-1e-05,0.00023,-0.0007,0.0004,2,1.0
5546,0.00059,0.00023,5e-05,0.00029,-1e-05,0.00023,-0.0007,0.0004,2,1.0
5547,0.00059,0.00023,5e-05,0.00029,-1e-05,0.00023,-0.0007,0.0004,2,1.0
5548,0.00059,0.00023,5e-05,0.00029,-1e-05,0.00023,-0.0007,0.0004,2,1.0
5549,0.00059,0.00023,5e-05,0.00029,-1e-05,0.00023,-0.0007,0.0004,2,1.0
5550,0.00059,0.00023,5e-05,0.00029,-1e-05,0.00023,-0.0007,0.0004,2,1.0
5551,0.00059,0.00023,5e-05,0.00029,-1e-05,0.00023,-0.0007,0.0004,2,1.0
5552,0.00015,0.00033,0.00033,-4e-05,-3e-05,-0.00018,-0.00069,-0.00015,2,1.0
5553,0.00015,0.00033,0.00033,-4e-05,-3e-05,-0.00018,-0.00069,-0.00015,2,1.0
5554,0.00015,0.00033,0.00033,-4e-05,-3e-05,-0.00018,-0.00069,-0.00015,2,1.0
5555,0.00015,0.00033,0.00033,-4e-05,-3e-05,-0.00018,-0.00069,-0.00015,2,1.0
5556,0.00015,0.00033,0.00033,-4e-05,-3e-05,-0.00018,-0.00069,-0.00015,2,1.0
5557,0.00015,0.00033,0.00033,-4e-05,-3e-05,-0.00018,-0.00069,-0.00015,2,1.0
5558,0.00015,0.00033,0.00033,-4e-05,-3e-05,-0.00018,-0.00069,-0.00015,2,1.0
5559,-0.00059,-1e-05,-4e-05,-0.0002,0.00039,0.0004,-0.00021,-0.00018,2,1.0
5560,-0.00059,-1e-05,-4e-05,-0.0002,0.00039,0.0004,-0.00021,-0.00018,2,1.0
5561,-0.00016,0.0,5e-05,0.00032,-3e-05,0.00015,7e-05,0.00014,2,1.0
5562,-0.00016,0.0,5e-05,0.00032,-3e-05,0.00015,7e-05,0.00014,2,1.0
5563,-0.00016,0.0,5e-05,0.00032,-3e-05,0.00015,7e-05,0.00014,2,1.0
5564,-0.00016,0.0,5e-05,0.00032,-3e-05,0.00015,7e-05,0.00014,2,1.0
5565,-0.00016,0.0,5e-05,0.00032,-3e-05,0.00015,7e-05,0.00014,2,1.0
5566,-0.00016,0.0,5e-05,0.00032,-3e-05,0.00015,7e-05,0.00014,2,1.0
5567,-0.00016,0.0,5e-05,0.00032,-3e-05,0.00015,7e-05,0.00014,2,1.0
5568,-0.00016,0.0,5e-05,0.00032,-3e-05,0.00015,7e-05,0.00014,2,1.0
5569,-0.00016,0.0,5e-05,0.00032,-3e-05,0.00015,7e-05,0.00014,2,1.0
5570,-0.00016,0.0,5e-05,0.00032,-3e-05,0.00015,7e-05,0.00014,2,1.0
5571,-0.00016,0.0,5e-05,0.00032,-3e-05,0.00015,7e-05,0.00014,2,1.0
5572,-0.00016,0.0,5e-05,0.00032,-3e-05,0.00015,7e-05,0.00014,2,1.0
5573,-0.00016,0.0,5e-05,0.00032,-3e-05,0.00015,7e-05,0.00014,2,1.0
5574,-0.00016,0.0,5e-05,0.00032,-3e-05,0.00015,7e-05,0.00014,2,1.0
5575,-0.00016,0.0,5e-05,0.00032,-3e-05,0.00015,7e-05,0.00014,2,1.0
5576,-0.00016,0.0,5e-05,0.00032,-3e-05,0.00015,7e-05,0.00014,2,1.0
5577,-0.00016,0.0,5e-05,0.00032,-3e-05,0.00015,7e-05,0.00014,2,1.0
5578,-0.00016,0.0,5e-05,0.00032,-3e-05,0.00015,7e-05,0.00014,2,1.0
5579,-0.00016,0.0,5e-05,0.00032,-3e-05,0.00015,7e-05,0.00014,2,1.0
5580,-0.00016,0.0,5e-05,0.00032,-3e-05,0.00015,7e-05,0.00014,2,1.0
5581,-0.00016,0.0,5e-05,0.00032,-3e-05,0.00015,7e-05,0.00014,2,1.0
5582,0.00043,9e-05,-0.00013,-0.0002,-0.00022,0.0001,0.00043,0.00035,2,1.0
5583,0.0002,0.00027,0.00027,-7e-05,-0.00015,-0.00047,-0.00014,-5e-05,2,1.0
5584,0.0002,0.00027,0.00027,-7e-05,-0.00015,-0.00047,-0.00014,-5e-05,2,1.0
5585,0.0002,0.00027,0.00027,-7e-05,-0.00015,-0.00047,-0.00014,-5e-05,2,1.0
5586,0.0002,0.00027,0.00027,-7e-05,-0.00015,-0.00047,-0.00014,-5e-05,2,1.0
5589,0.0002,0.00027,0.00027,-7e-05,-0.00015,-0.00047,-0.00014,-5e-05,2,1.0
5590,0.0002,0.00027,0.00027,-7e-05,-0.00015,-0.00047,-0.00014,-5e-05,2,1.0
5591,0.0002,0.00027,0.00027,-7e-05,-0.00015,-0.00047,-0.00014,-5e-05,2,1.0
5592,0.0002,0.00027,0.00027,-7e-05,-0.00015,-0.00047,-0.00014,-5e-05,2,1.0
5593,0.0002,0.00027,0.00027,-7e-05,-0.00015,-0.00047,-0.00014,-5e-05,2,1.0
5594,0.0002,0.00027,0.00027,-7e-05,-0.00015,-0.00047,-0.00014,-5e-05,2,1.0
5595,1e-05,1e-05,8e-05,0.00023,-0.00016,0.00031,-0.00087,-8e-05,2,1.0
5596,-0.00054,-0.00011,-0.0006,-0.00039,-0.00011,-0.0002,0.00073,-5e-05,2,1.0
5597,-0.00054,-0.00011,-0.0006,-0.00039,-0.00011,-0.0002,0.00073,-5e-05,2,1.0
5598,-0.00054,-0.00011,-0.0006,-0.00039,-0.00011,-0.0002,0.00073,-5e-05,2,1.0
5599,-0.00054,-0.00011,-0.0006,-0.00039,-0.00011,-0.0002,0.00073,-5e-05,2,1.0
5600,-0.00054,-0.00011,-0.0006,-0.00039,-0.00011,-0.0002,0.00073,-5e-05,2,1.0
5601,-0.00054,-0.00011,-0.0006,-0.00039,-0.00011,-0.0002,0.00073,-5e-05,2,1.0
5602,-0.00054,-0.00011,-0.0006,-0.00039,-0.00011,-0.0002,0.00073,-5e-05,2,1.0
5603,-0.00054,-0.00011,-0.0006,-0.00039,-0.00011,-0.0002,0.00073,-5e-05,2,1.0
5604,0.00034,-0.00018,0.00032,0.0004,0.00045,0.00071,-4e-05,0.00018,2,1.0
5605,0.00039,4e-05,-8e-05,-1e-05,-9e-05,-4e-05,-0.00017,2e-05,2,1.0
5606,0.00039,4e-05,-8e-05,-1e-05,-9e-05,-4e-05,-0.00017,2e-05,2,1.0
5607,0.00039,4e-05,-8e-05,-1e-05,-9e-05,-4e-05,-0.00017,2e-05,2,1.0
5608,0.00039,4e-05,-8e-05,-1e-05,-9e-05,-4e-05,-0.00017,2e-05,2,1.0
5609,0.00039,4e-05,-8e-05,-1e-05,-9e-05,-4e-05,-0.00017,2e-05,2,1.0
5610,0.00039,4e-05,-8e-05,-1e-05,-9e-05,-4e-05,-0.00017,2e-05,2,1.0
5611,0.00039,4e-05,-8e-05,-1e-05,-9e-05,-4e-05,-0.00017,2e-05,2,1.0
5612,0.00039,4e-05,-8e-05,-1e-05,-9e-05,-4e-05,-0.00017,2e-05,2,1.0
5613,0.00039,4e-05,-8e-05,-1e-05,-9e-05,-4e-05,-0.00017,2e-05,2,1.0
5614,0.00039,4e-05,-8e-05,-1e-05,-9e-05,-4e-05,-0.00017,2e-05,2,1.0
5615,0.00039,4e-05,-8e-05,-1e-05,-9e-05,-4e-05,-0.00017,2e-05,2,1.0
5616,0.00039,4e-05,-8e-05,-1e-05,-9e-05,-4e-05,-0.00017,2e-05,2,1.0
5617,0.00039,4e-05,-8e-05,-1e-05,-9e-05,-4e-05,-0.00017,2e-05,2,1.0
5618,0.00039,4e-05,-8e-05,-1e-05,-9e-05,-4e-05,-0.00017,2e-05,2,1.0
5619,-9e-05,0.0,-0.0001,0.00017,-0.00044,-0.00056,-0.00012,-9e-05,2,1.0
5620,-9e-05,0.0,-0.0001,0.00017,-0.00044,-0.00056,-0.00012,-9e-05,2,1.0
5621,-0.00026,-0.0002,-0.00015,-0.00029,-8e-05,0.00069,0.00111,-0.00017,2,1.0
