time,channel1,channel2,channel3,channel4,channel5,channel6,channel7,channel8,class,label
1056,-2e-05,-1e-05,1e-05,1e-05,-1e-05,-2e-05,-1e-05,-2e-05,1,11.0
1058,-2e-05,-1e-05,1e-05,1e-05,-1e-05,-2e-05,-1e-05,-2e-05,1,11.0
1059,-2e-05,-1e-05,1e-05,1e-05,-1e-05,-2e-05,-1e-05,-2e-05,1,11.0
1060,-2e-05,-1e-05,1e-05,1e-05,-1e-05,-2e-05,-1e-05,-2e-05,1,11.0
1061,-2e-05,-1e-05,1e-05,1e-05,-1e-05,-2e-05,-1e-05,-2e-05,1,11.0
1062,-2e-05,-1e-05,1e-05,1e-05,-1e-05,-2e-05,-1e-05,-2e-05,1,11.0
1063,-2e-05,-1e-05,1e-05,1e-05,-1e-05,-2e-05,-1e-05,-2e-05,1,11.0
1064,-2e-05,-1e-05,1e-05,1e-05,-1e-05,-2e-05,-1e-05,-2e-05,1,11.0
1065,-2e-05,-1e-05,1e-05,1e-05,-1e-05,-2e-05,-1e-05,-2e-05,1,11.0
1066,-2e-05,-1e-05,1e-05,1e-05,-1e-05,-2e-05,-1e-05,-2e-05,1,11.0
1067,-2e-05,-2e-05,4e-05,0.0,0.0,-3e-05,-1e-05,-2e-05,1,11.0
1068,-2e-05,-2e-05,4e-05,0.0,0.0,-3e-05,-1e-05,-2e-05,1,11.0
1069,-2e-05,-2e-05,4e-05,0.0,0.0,-3e-05,-1e-05,-2e-05,1,11.0
1070,-2e-05,-2e-05,4e-05,0.0,0.0,-3e-05,-1e-05,-2e-05,1,11.0
1071,-2e-05,-2e-05,4e-05,0.0,0.0,-3e-05,-1e-05,-2e-05,1,11.0
1072,-2e-05,-2e-05,4e-05,0.0,0.0,-3e-05,-1e-05,-2e-05,1,11.0
1073,-2e-05,-2e-05,4e-05,0.0,0.0,-3e-05,-1e-05,-2e-05,1,11.0
1074,-1e-05,-4e-05,-5e-05,-1e-05,0.0,0.0,0.0,-1e-05,1,11.0
1075,-1e-05,-4e-05,-5e-05,-1e-05,0.0,0.0,0.0,-1e-05,1,11.0
1076,0.0,-2e-05,-1e-05,-1e-05,2e-05,1e-05,-3e-05,0.0,1,11.0
1077,0.0,-2e-05,-1e-05,-1e-05,2e-05,1e-05,-3e-05,0.0,1,11.0
1078,0.0,-2e-05,-1e-05,-1e-05,2e-05,1e-05,-3e-05,0.0,1,11.0
1079,0.0,-2e-05,-1e-05,-1e-05,2e-05,1e-05,-3e-05,0.0,1,11.0
1080,0.0,-2e-05,-1e-05,-1e-05,2e-05,1e-05,-3e-05,0.0,1,11.0
1081,0.0,-2e-05,-1e-05,-1e-05,2e-05,1e-05,-3e-05,0.0,1,11.0
1082,0.0,-2e-05,-1e-05,-1e-05,2e-05,1e-05,-3e-05,0.0,1,11.0
1083,0.0,-2e-05,-1e-05,-1e-05,2e-05,1e-05,-3e-05,0.0,1,11.0
1084,0.0,-2e-05,-1e-05,-1e-05,2e-05,1e-05,-3e-05,0.0,1,11.0
1085,0.0,-2e-05,-1e-05,-1e-05,2e-05,1e-05,-3e-05,0.0,1,11.0
1086,0.0,-2e-05,-1e-05,-1e-05,2e-05,1e-05,-3e-05,0.0,1,11.0
1088,0.0,-2e-05,-1e-05,-1e-05,2e-05,1e-05,-3e-05,0.0,1,11.0
1089,0.0,-2e-05,-1e-05,-1e-05,2e-05,1e-05,-3e-05,0.0,1,11.0
1090,0.0,-2e-05,-1e-05,-1e-05,2e-05,1e-05,-3e-05,0.0,1,11.0
1091,0.0,-2e-05,-1e-05,-1e-05,2e-05,1e-05,-3e-05,0.0,1,11.0
1092,0.0,-2e-05,-1e-05,-1e-05,2e-05,1e-05,-3e-05,0.0,1,11.0
1093,0.0,-2e-05,-1e-05,-1e-05,2e-05,1e-05,-3e-05,0.0,1,11.0
1094,0.0,-2e-05,-1e-05,-1e-05,2e-05,1e-05,-3e-05,0.0,1,11.0
1095,0.0,-2e-05,-1e-05,-1e-05,2e-05,1e-05,-3e-05,0.0,1,11.0
1096,0.0,-2e-05,-1e-05,-1e-05,2e-05,1e-05,-3e-05,0.0,1,11.0
1097,0.0,1e-05,-2e-05,-1e-05,-1e-05,-1e-05,-1e-05,-1e-05,1,11.0
1098,0.0,3e-05,0.0,0.0,-2e-05,1e-05,-1e-05,0.0,1,11.0
1099,0.0,3e-05,0.0,0.0,-2e-05,1e-05,-1e-05,0.0,1,11.0
1100,0.0,3e-05,0.0,0.0,-2e-05,1e-05,-1e-05,0.0,1,11.0
1101,0.0,3e-05,0.0,0.0,-2e-05,1e-05,-1e-05,0.0,1,11.0
1102,0.0,3e-05,0.0,0.0,-2e-05,1e-05,-1e-05,0.0,1,11.0
1103,0.0,3e-05,0.0,0.0,-2e-05,1e-05,-1e-05,0.0,1,11.0
1104,0.0,3e-05,0.0,0.0,-2e-05,1e-05,-1e-05,0.0,1,11.0
1105,0.0,3e-05,0.0,0.0,-2e-05,1e-05,-1e-05,0.0,1,11.0
1106,0.0,3e-05,0.0,0.0,-2e-05,1e-05,-1e-05,0.0,1,11.0
1107,0.0,3e-05,0.0,0.0,-2e-05,1e-05,-1e-05,0.0,1,11.0
1108,0.0,3e-05,0.0,0.0,-2e-05,1e-05,-1e-05,0.0,1,11.0
1109,0.0,3e-05,0.0,0.0,-2e-05,1e-05,-1e-05,0.0,1,11.0
1110,0.0,3e-05,0.0,0.0,-2e-05,1e-05,-1e-05,0.0,1,11.0
1111,0.0,3e-05,0.0,0.0,-2e-05,1e-05,-1e-05,0.0,1,11.0
1112,0.0,3e-05,0.0,0.0,-2e-05,1e-05,-1e-05,0.0,1,11.0
1113,0.0,3e-05,0.0,0.0,-2e-05,1e-05,-1e-05,0.0,1,11.0
1114,0.0,3e-05,0.0,0.0,-2e-05,1e-05,-1e-05,0.0,1,11.0
1115,0.0,3e-05,0.0,0.0,-2e-05,1e-05,-1e-05,0.0,1,11.0
1116,0.0,3e-05,0.0,0.0,-2e-05,1e-05,-1e-05,0.0,1,11.0
1117,0.0,3e-05,0.0,0.0,-2e-05,1e-05,-1e-05,0.0,1,11.0
1118,0.0,3e-05,0.0,0.0,-2e-05,1e-05,-1e-05,0.0,1,11.0
1119,0.0,3e-05,0.0,0.0,-2e-05,1e-05,-1e-05,0.0,1,11.0
1120,-3e-05,-3e-05,-3e-05,0.0,-3e-05,-4e-05,0.0,0.0,1,11.0
1121,-1e-05,-4e-05,-5e-05,-2e-05,-1e-05,-2e-05,-2e-05,-4e-05,1,11.0
1122,-1e-05,-4e-05,-5e-05,-2e-05,-1e-05,-2e-05,-2e-05,-4e-05,1,11.0
1123,-1e-05,-4e-05,-5e-05,-2e-05,-1e-05,-2e-05,-2e-05,-4e-05,1,11.0
1124,-1e-05,-4e-05,-5e-05,-2e-05,-1e-05,-2e-05,-2e-05,-4e-05,1,11.0
1125,-1e-05,-4e-05,-5e-05,-2e-05,-1e-05,-2e-05,-2e-05,-4e-05,1,11.0
1126,-1e-05,-4e-05,-5e-05,-2e-05,-1e-05,-2e-05,-2e-05,-4e-05,1,11.0
1127,-1e-05,-4e-05,-5e-05,-2e-05,-1e-05,-2e-05,-2e-05,-4e-05,1,11.0
1128,-1e-05,-4e-05,-5e-05,-2e-05,-1e-05,-2e-05,-2e-05,-4e-05,1,11.0
1129,-1e-05,-4e-05,-5e-05,-2e-05,-1e-05,-2e-05,-2e-05,-4e-05,1,11.0
1130,-1e-05,-4e-05,-5e-05,-2e-05,-1e-05,-2e-05,-2e-05,-4e-05,1,11.0
1131,-1e-05,-4e-05,-5e-05,-2e-05,-1e-05,-2e-05,-2e-05,-4e-05,1,11.0
1132,-1e-05,-4e-05,-5e-05,-2e-05,-1e-05,-2e-05,-2e-05,-4e-05,1,11.0
1133,-2e-05,-1e-05,-2e-05,-2e-05,0.0,-2e-05,-1e-05,-1e-05,1,11.0
1134,-2e-05,-1e-05,-2e-05,-2e-05,0.0,-2e-05,-1e-05,-1e-05,1,11.0
1135,-2e-05,-1e-05,-2e-05,-2e-05,0.0,-2e-05,-1e-05,-1e-05,1,11.0
1136,-2e-05,-1e-05,-2e-05,-2e-05,0.0,-2e-05,-1e-05,-1e-05,1,11.0
1138,-2e-05,-1e-05,-2e-05,-2e-05,0.0,-2e-05,-1e-05,-1e-05,1,11.0
1139,-2e-05,-1e-05,-2e-05,-2e-05,0.0,-2e-05,-1e-05,-1e-05,1,11.0
1140,0.0,1e-05,5e-05,-2e-05,0.0,0.0,1e-05,2e-05,1,11.0
1141,0.0,1e-05,5e-05,-2e-05,0.0,0.0,1e-05,2e-05,1,11.0
1142,0.0,1e-05,5e-05,-2e-05,0.0,0.0,1e-05,2e-05,1,11.0
1143,0.0,1e-05,5e-05,-2e-05,0.0,0.0,1e-05,2e-05,1,11.0
1144,0.0,1e-05,5e-05,-2e-05,0.0,0.0,1e-05,2e-05,1,11.0
1145,0.0,1e-05,5e-05,-2e-05,0.0,0.0,1e-05,2e-05,1,11.0
1146,0.0,1e-05,5e-05,-2e-05,0.0,0.0,1e-05,2e-05,1,11.0
1147,0.0,1e-05,5e-05,-2e-05,0.0,0.0,1e-05,2e-05,1,11.0
1148,0.0,1e-05,5e-05,-2e-05,0.0,0.0,1e-05,2e-05,1,11.0
1149,0.0,1e-05,5e-05,-2e-05,0.0,0.0,1e-05,2e-05,1,11.0
1150,0.0,1e-05,5e-05,-2e-05,0.0,0.0,1e-05,2e-05,1,11.0
1151,0.0,1e-05,5e-05,-2e-05,0.0,0.0,1e-05,2e-05,1,11.0
1152,0.0,1e-05,5e-05,-2e-05,0.0,0.0,1e-05,2e-05,1,11.0
1153,0.0,1e-05,5e-05,-2e-05,0.0,0.0,1e-05,2e-05,1,11.0
1154,0.0,1e-05,5e-05,-2e-05,0.0,0.0,1e-05,2e-05,1,11.0
1155,0.0,1e-05,5e-05,-2e-05,0.0,0.0,1e-05,2e-05,1,11.0
1156,0.0,1e-05,5e-05,-2e-05,0.0,0.0,1e-05,2e-05,1,11.0
1157,-2e-05,-1e-05,-2e-05,-2e-05,0.0,-1e-05,0.0,0.0,1,11.0
1158,-2e-05,-1e-05,-2e-05,-2e-05,0.0,-1e-05,0.0,0.0,1,11.0
1159,-2e-05,-1e-05,-2e-05,-2e-05,0.0,-1e-05,0.0,0.0,1,11.0
1160,-2e-05,-1e-05,-2e-05,-2e-05,0.0,-1e-05,0.0,0.0,1,11.0
1161,-2e-05,-1e-05,-2e-05,-2e-05,0.0,-1e-05,0.0,0.0,1,11.0
1162,-2e-05,-1e-05,-2e-05,-2e-05,0.0,-1e-05,0.0,0.0,1,11.0
1163,-1e-05,-1e-05,-3e-05,0.0,0.0,0.0,0.0,0.0,1,11.0
1164,-1e-05,-1e-05,-3e-05,0.0,0.0,0.0,0.0,0.0,1,11.0
1165,-1e-05,-1e-05,-3e-05,0.0,0.0,0.0,0.0,0.0,1,11.0
1166,-1e-05,-1e-05,-3e-05,0.0,0.0,0.0,0.0,0.0,1,11.0
1167,-1e-05,-1e-05,-3e-05,0.0,0.0,0.0,0.0,0.0,1,11.0
1168,-1e-05,-1e-05,-3e-05,0.0,0.0,0.0,0.0,0.0,1,11.0
1169,-1e-05,-1e-05,-3e-05,0.0,0.0,0.0,0.0,0.0,1,11.0
1170,-1e-05,-1e-05,-3e-05,0.0,0.0,0.0,0.0,0.0,1,11.0
1171,-1e-05,-1e-05,-3e-05,0.0,0.0,0.0,0.0,0.0,1,11.0
1172,-1e-05,-1e-05,-3e-05,0.0,0.0,0.0,0.0,0.0,1,11.0
1173,-1e-05,-1e-05,-3e-05,0.0,0.0,0.0,0.0,0.0,1,11.0
1174,-1e-05,-1e-05,-3e-05,0.0,0.0,0.0,0.0,0.0,1,11.0
1175,-1e-05,-1e-05,-3e-05,0.0,0.0,0.0,0.0,0.0,1,11.0
1176,-1e-05,-1e-05,-3e-05,0.0,0.0,0.0,0.0,0.0,1,11.0
1177,-1e-05,-1e-05,-3e-05,0.0,0.0,0.0,0.0,0.0,1,11.0
1178,-1e-05,-1e-05,-3e-05,0.0,0.0,0.0,0.0,0.0,1,11.0
1179,0.0,2e-05,0.0,0.0,-1e-05,1e-05,0.0,1e-05,1,11.0
1180,0.0,2e-05,0.0,0.0,-1e-05,1e-05,0.0,1e-05,1,11.0
1181,2e-05,0.0,-1e-05,0.0,0.0,2e-05,-2e-05,-2e-05,1,11.0
1182,2e-05,0.0,-1e-05,0.0,0.0,2e-05,-2e-05,-2e-05,1,11.0
1183,2e-05,0.0,-1e-05,0.0,0.0,2e-05,-2e-05,-2e-05,1,11.0
1184,2e-05,0.0,-1e-05,0.0,0.0,2e-05,-2e-05,-2e-05,1,11.0
1185,2e-05,0.0,-1e-05,0.0,0.0,2e-05,-2e-05,-2e-05,1,11.0
1186,2e-05,0.0,-1e-05,0.0,0.0,2e-05,-2e-05,-2e-05,1,11.0
1188,2e-05,0.0,-1e-05,0.0,0.0,2e-05,-2e-05,-2e-05,1,11.0
1189,2e-05,0.0,-1e-05,0.0,0.0,2e-05,-2e-05,-2e-05,1,11.0
1190,2e-05,0.0,-1e-05,0.0,0.0,2e-05,-2e-05,-2e-05,1,11.0
1191,2e-05,0.0,-1e-05,0.0,0.0,2e-05,-2e-05,-2e-05,1,11.0
1192,2e-05,0.0,-1e-05,0.0,0.0,2e-05,-2e-05,-2e-05,1,11.0
1193,2e-05,-2e-05,0.0,-4e-05,-2e-05,-5e-05,-1e-05,-3e-05,1,11.0
1194,-2e-05,-3e-05,-3e-05,0.0,-2e-05,-1e-05,-1e-05,-2e-05,1,11.0
1195,-2e-05,-3e-05,-3e-05,0.0,-2e-05,-1e-05,-1e-05,-2e-05,1,11.0
1196,-3e-05,-2e-05,-6e-05,-1e-05,-3e-05,-3e-05,0.0,-1e-05,1,11.0
1197,-3e-05,-2e-05,-6e-05,-1e-05,-3e-05,-3e-05,0.0,-1e-05,1,11.0
1198,-3e-05,-2e-05,-6e-05,-1e-05,-3e-05,-3e-05,0.0,-1e-05,1,11.0
1199,-3e-05,-2e-05,-6e-05,-1e-05,-3e-05,-3e-05,0.0,-1e-05,1,11.0
1200,-3e-05,-2e-05,-6e-05,-1e-05,-3e-05,-3e-05,0.0,-1e-05,1,11.0
1201,-3e-05,-2e-05,-6e-05,-1e-05,-3e-05,-3e-05,0.0,-1e-05,1,11.0
1202,-3e-05,-2e-05,-6e-05,-1e-05,-3e-05,-3e-05,0.0,-1e-05,1,11.0
1203,-3e-05,-2e-05,-6e-05,-1e-05,-3e-05,-3e-05,0.0,-1e-05,1,11.0
1204,-3e-05,-2e-05,-6e-05,-1e-05,-3e-05,-3e-05,0.0,-1e-05,1,11.0
1205,-3e-05,-2e-05,-6e-05,-1e-05,-3e-05,-3e-05,0.0,-1e-05,1,11.0
1206,-3e-05,-2e-05,-6e-05,-1e-05,-3e-05,-3e-05,0.0,-1e-05,1,11.0
1207,-3e-05,-2e-05,-6e-05,-1e-05,-3e-05,-3e-05,0.0,-1e-05,1,11.0
1208,-3e-05,-2e-05,-6e-05,-1e-05,-3e-05,-3e-05,0.0,-1e-05,1,11.0
1209,-3e-05,-2e-05,-6e-05,-1e-05,-3e-05,-3e-05,0.0,-1e-05,1,11.0
1210,-3e-05,-2e-05,-6e-05,-1e-05,-3e-05,-3e-05,0.0,-1e-05,1,11.0
1211,-3e-05,-2e-05,-6e-05,-1e-05,-3e-05,-3e-05,0.0,-1e-05,1,11.0
1212,-3e-05,-2e-05,-6e-05,-1e-05,-3e-05,-3e-05,0.0,-1e-05,1,11.0
1213,-3e-05,-2e-05,-6e-05,-1e-05,-3e-05,-3e-05,0.0,-1e-05,1,11.0
1214,-3e-05,-2e-05,-6e-05,-1e-05,-3e-05,-3e-05,0.0,-1e-05,1,11.0
1215,-3e-05,-2e-05,-6e-05,-1e-05,-3e-05,-3e-05,0.0,-1e-05,1,11.0
1216,-4e-05,0.0,1e-05,0.0,0.0,0.0,-3e-05,-4e-05,1,11.0
1217,-1e-05,0.0,0.0,0.0,-1e-05,-1e-05,-1e-05,-1e-05,1,11.0
1218,1e-05,1e-05,4e-05,1e-05,1e-05,1e-05,0.0,0.0,1,11.0
1219,1e-05,1e-05,4e-05,1e-05,1e-05,1e-05,0.0,0.0,1,11.0
1220,1e-05,1e-05,4e-05,1e-05,1e-05,1e-05,0.0,0.0,1,11.0
1221,1e-05,1e-05,4e-05,1e-05,1e-05,1e-05,0.0,0.0,1,11.0
1222,1e-05,1e-05,4e-05,1e-05,1e-05,1e-05,0.0,0.0,1,11.0
1223,1e-05,1e-05,4e-05,1e-05,1e-05,1e-05,0.0,0.0,1,11.0
1224,1e-05,1e-05,4e-05,1e-05,1e-05,1e-05,0.0,0.0,1,11.0
1225,1e-05,1e-05,4e-05,1e-05,1e-05,1e-05,0.0,0.0,1,11.0
1226,1e-05,1e-05,4e-05,1e-05,1e-05,1e-05,0.0,0.0,1,11.0
1227,1e-05,1e-05,4e-05,1e-05,1e-05,1e-05,0.0,0.0,1,11.0
1228,1e-05,1e-05,4e-05,1e-05,1e-05,1e-05,0.0,0.0,1,11.0
1229,1e-05,1e-05,4e-05,1e-05,1e-05,1e-05,0.0,0.0,1,11.0
1230,1e-05,1e-05,4e-05,1e-05,1e-05,1e-05,0.0,0.0,1,11.0
1231,1e-05,1e-05,4e-05,1e-05,1e-05,1e-05,0.0,0.0,1,11.0
1232,1e-05,1e-05,4e-05,1e-05,1e-05,1e-05,0.0,0.0,1,11.0
1233,1e-05,1e-05,4e-05,1e-05,1e-05,1e-05,0.0,0.0,1,11.0
1234,1e-05,1e-05,4e-05,1e-05,1e-05,1e-05,0.0,0.0,1,11.0
1235,1e-05,1e-05,4e-05,1e-05,1e-05,1e-05,0.0,0.0,1,11.0
1236,1e-05,1e-05,4e-05,1e-05,1e-05,1e-05,0.0,0.0,1,11.0
1238,1e-05,1e-05,4e-05,1e-05,1e-05,1e-05,0.0,0.0,1,11.0
1239,1e-05,1e-05,4e-05,1e-05,1e-05,1e-05,0.0,0.0,1,11.0
1240,-3e-05,-4e-05,-5e-05,-2e-05,-5e-05,-7e-05,-2e-05,-3e-05,1,11.0
1241,1e-05,-2e-05,-2e-05,0.0,-2e-05,-1e-05,0.0,1e-05,1,11.0
1242,1e-05,-2e-05,-2e-05,0.0,-2e-05,-1e-05,0.0,1e-05,1,11.0
1243,1e-05,-2e-05,-2e-05,0.0,-2e-05,-1e-05,0.0,1e-05,1,11.0
1244,1e-05,-2e-05,-2e-05,0.0,-2e-05,-1e-05,0.0,1e-05,1,11.0
1245,1e-05,-2e-05,-2e-05,0.0,-2e-05,-1e-05,0.0,1e-05,1,11.0
1246,1e-05,-2e-05,-2e-05,0.0,-2e-05,-1e-05,0.0,1e-05,1,11.0
1247,1e-05,-2e-05,-2e-05,0.0,-2e-05,-1e-05,0.0,1e-05,1,11.0
1248,1e-05,-2e-05,-2e-05,0.0,-2e-05,-1e-05,0.0,1e-05,1,11.0
1249,1e-05,-2e-05,-2e-05,0.0,-2e-05,-1e-05,0.0,1e-05,1,11.0
1250,1e-05,-2e-05,-2e-05,0.0,-2e-05,-1e-05,0.0,1e-05,1,11.0
1251,1e-05,-2e-05,-2e-05,0.0,-2e-05,-1e-05,0.0,1e-05,1,11.0
1252,1e-05,-2e-05,-2e-05,0.0,-2e-05,-1e-05,0.0,1e-05,1,11.0
1253,1e-05,-2e-05,-2e-05,0.0,-2e-05,-1e-05,0.0,1e-05,1,11.0
1254,-1e-05,1e-05,2e-05,1e-05,0.0,0.0,0.0,-4e-05,1,11.0
1255,-1e-05,1e-05,2e-05,1e-05,0.0,0.0,0.0,-4e-05,1,11.0
1256,-2e-05,-3e-05,-3e-05,-1e-05,-2e-05,-1e-05,-1e-05,-2e-05,1,11.0
1257,-2e-05,-3e-05,-3e-05,-1e-05,-2e-05,-1e-05,-1e-05,-2e-05,1,11.0
1258,-2e-05,-3e-05,-3e-05,-1e-05,-2e-05,-1e-05,-1e-05,-2e-05,1,11.0
1259,-2e-05,-3e-05,-3e-05,-1e-05,-2e-05,-1e-05,-1e-05,-2e-05,1,11.0
1260,-2e-05,-3e-05,-3e-05,-1e-05,-2e-05,-1e-05,-1e-05,-2e-05,1,11.0
1261,-2e-05,-3e-05,-3e-05,-1e-05,-2e-05,-1e-05,-1e-05,-2e-05,1,11.0
1262,-2e-05,-3e-05,-3e-05,-1e-05,-2e-05,-1e-05,-1e-05,-2e-05,1,11.0
1263,-2e-05,-3e-05,-3e-05,-1e-05,-2e-05,-1e-05,-1e-05,-2e-05,1,11.0
1264,-2e-05,-3e-05,-3e-05,-1e-05,-2e-05,-1e-05,-1e-05,-2e-05,1,11.0
1265,-2e-05,-3e-05,-3e-05,-1e-05,-2e-05,-1e-05,-1e-05,-2e-05,1,11.0
1266,-2e-05,-3e-05,-3e-05,-1e-05,-2e-05,-1e-05,-1e-05,-2e-05,1,11.0
1267,-2e-05,-3e-05,-3e-05,-1e-05,-2e-05,-1e-05,-1e-05,-2e-05,1,11.0
1268,-2e-05,-3e-05,-3e-05,-1e-05,-2e-05,-1e-05,-1e-05,-2e-05,1,11.0
1269,-2e-05,-3e-05,-3e-05,-1e-05,-2e-05,-1e-05,-1e-05,-2e-05,1,11.0
1270,-2e-05,-3e-05,-3e-05,-1e-05,-2e-05,-1e-05,-1e-05,-2e-05,1,11.0
1271,-2e-05,-3e-05,-3e-05,-1e-05,-2e-05,-1e-05,-1e-05,-2e-05,1,11.0
1272,-2e-05,-3e-05,-3e-05,-1e-05,-2e-05,-1e-05,-1e-05,-2e-05,1,11.0
1273,-2e-05,-3e-05,-3e-05,-1e-05,-2e-05,-1e-05,-1e-05,-2e-05,1,11.0
1274,-2e-05,-3e-05,-3e-05,-1e-05,-2e-05,-1e-05,-1e-05,-2e-05,1,11.0
1275,-2e-05,-3e-05,-3e-05,-1e-05,-2e-05,-1e-05,-1e-05,-2e-05,1,11.0
1276,1e-05,-1e-05,-2e-05,-2e-05,-2e-05,-1e-05,-1e-05,-2e-05,1,11.0
1277,1e-05,0.0,-3e-05,-2e-05,-1e-05,1e-05,1e-05,-1e-05,1,11.0
1278,-4e-05,-1e-05,1e-05,-2e-05,0.0,1e-05,-2e-05,-4e-05,1,11.0
1279,-4e-05,-1e-05,1e-05,-2e-05,0.0,1e-05,-2e-05,-4e-05,1,11.0
1280,-4e-05,-1e-05,1e-05,-2e-05,0.0,1e-05,-2e-05,-4e-05,1,11.0
1281,-4e-05,-1e-05,1e-05,-2e-05,0.0,1e-05,-2e-05,-4e-05,1,11.0
1282,-4e-05,-1e-05,1e-05,-2e-05,0.0,1e-05,-2e-05,-4e-05,1,11.0
1283,-4e-05,-1e-05,1e-05,-2e-05,0.0,1e-05,-2e-05,-4e-05,1,11.0
1284,-4e-05,-1e-05,1e-05,-2e-05,0.0,1e-05,-2e-05,-4e-05,1,11.0
1285,-4e-05,-1e-05,1e-05,-2e-05,0.0,1e-05,-2e-05,-4e-05,1,11.0
1286,-4e-05,-1e-05,1e-05,-2e-05,0.0,1e-05,-2e-05,-4e-05,1,11.0
1288,-4e-05,-1e-05,1e-05,-2e-05,0.0,1e-05,-2e-05,-4e-05,1,11.0
1289,-4e-05,-1e-05,1e-05,-2e-05,0.0,1e-05,-2e-05,-4e-05,1,11.0
1290,-4e-05,-1e-05,1e-05,-2e-05,0.0,1e-05,-2e-05,-4e-05,1,11.0
1291,-4e-05,-1e-05,1e-05,-2e-05,0.0,1e-05,-2e-05,-4e-05,1,11.0
1292,-4e-05,-1e-05,1e-05,-2e-05,0.0,1e-05,-2e-05,-4e-05,1,11.0
1293,-4e-05,-1e-05,1e-05,-2e-05,0.0,1e-05,-2e-05,-4e-05,1,11.0
1294,-4e-05,-1e-05,1e-05,-2e-05,0.0,1e-05,-2e-05,-4e-05,1,11.0
1295,-4e-05,-1e-05,1e-05,-2e-05,0.0,1e-05,-2e-05,-4e-05,1,11.0
1296,-4e-05,-1e-05,1e-05,-2e-05,0.0,1e-05,-2e-05,-4e-05,1,11.0
1297,-4e-05,-1e-05,1e-05,-2e-05,0.0,1e-05,-2e-05,-4e-05,1,11.0
1298,-4e-05,-1e-05,1e-05,-2e-05,0.0,1e-05,-2e-05,-4e-05,1,11.0
1299,-1e-05,-3e-05,-1e-05,-2e-05,-2e-05,-1e-05,0.0,0.0,1,11.0
1300,-1e-05,-3e-05,-1e-05,-2e-05,-2e-05,-1e-05,0.0,0.0,1,11.0
1301,-1e-05,-1e-05,1e-05,0.0,0.0,-1e-05,4e-05,-2e-05,1,11.0
1302,-1e-05,-1e-05,1e-05,0.0,0.0,-1e-05,4e-05,-2e-05,1,11.0
1303,-1e-05,-1e-05,1e-05,0.0,0.0,-1e-05,4e-05,-2e-05,1,11.0
1304,-1e-05,-1e-05,1e-05,0.0,0.0,-1e-05,4e-05,-2e-05,1,11.0
1305,-1e-05,-1e-05,1e-05,0.0,0.0,-1e-05,4e-05,-2e-05,1,11.0
1306,-1e-05,-1e-05,1e-05,0.0,0.0,-1e-05,4e-05,-2e-05,1,11.0
1307,-1e-05,-1e-05,1e-05,0.0,0.0,-1e-05,4e-05,-2e-05,1,11.0
1308,-1e-05,-1e-05,1e-05,0.0,0.0,-1e-05,4e-05,-2e-05,1,11.0
1309,-1e-05,-1e-05,1e-05,0.0,0.0,-1e-05,4e-05,-2e-05,1,11.0
1310,-1e-05,-1e-05,1e-05,0.0,0.0,-1e-05,4e-05,-2e-05,1,11.0
1311,-1e-05,-1e-05,1e-05,0.0,0.0,-1e-05,4e-05,-2e-05,1,11.0
1312,-1e-05,-1e-05,1e-05,0.0,0.0,-1e-05,4e-05,-2e-05,1,11.0
1313,-2e-05,-1e-05,-1e-05,-3e-05,-2e-05,-4e-05,-1e-05,-1e-05,1,11.0
1314,-2e-05,-1e-05,-1e-05,-3e-05,-2e-05,-4e-05,-1e-05,-1e-05,1,11.0
1315,-2e-05,-1e-05,-1e-05,-3e-05,-2e-05,-4e-05,-1e-05,-1e-05,1,11.0
1316,-2e-05,-1e-05,-1e-05,-3e-05,-2e-05,-4e-05,-1e-05,-1e-05,1,11.0
1317,-2e-05,-1e-05,-1e-05,-3e-05,-2e-05,-4e-05,-1e-05,-1e-05,1,11.0
1318,-2e-05,-1e-05,-1e-05,-3e-05,-2e-05,-4e-05,-1e-05,-1e-05,1,11.0
1319,-2e-05,-1e-05,-1e-05,-3e-05,-2e-05,-4e-05,-1e-05,-1e-05,1,11.0
1320,-2e-05,-3e-05,-2e-05,-2e-05,-1e-05,0.0,-2e-05,2e-05,1,11.0
1321,-2e-05,-3e-05,-2e-05,-2e-05,-1e-05,0.0,-2e-05,2e-05,1,11.0
1322,-2e-05,-3e-05,-2e-05,-2e-05,-1e-05,0.0,-2e-05,2e-05,1,11.0
1323,-2e-05,-3e-05,-2e-05,-2e-05,-1e-05,0.0,-2e-05,2e-05,1,11.0
1324,-2e-05,-3e-05,-2e-05,-2e-05,-1e-05,0.0,-2e-05,2e-05,1,11.0
1325,-2e-05,-3e-05,-2e-05,-2e-05,-1e-05,0.0,-2e-05,2e-05,1,11.0
1326,-2e-05,-3e-05,-2e-05,-2e-05,-1e-05,0.0,-2e-05,2e-05,1,11.0
1327,-2e-05,-3e-05,-2e-05,-2e-05,-1e-05,0.0,-2e-05,2e-05,1,11.0
1328,-2e-05,-3e-05,-2e-05,-2e-05,-1e-05,0.0,-2e-05,2e-05,1,11.0
1329,-2e-05,-3e-05,-2e-05,-2e-05,-1e-05,0.0,-2e-05,2e-05,1,11.0
1330,-2e-05,-3e-05,-2e-05,-2e-05,-1e-05,0.0,-2e-05,2e-05,1,11.0
1331,-2e-05,-3e-05,-2e-05,-2e-05,-1e-05,0.0,-2e-05,2e-05,1,11.0
1332,-2e-05,-3e-05,-2e-05,-2e-05,-1e-05,0.0,-2e-05,2e-05,1,11.0
1333,-2e-05,-3e-05,-2e-05,-2e-05,-1e-05,0.0,-2e-05,2e-05,1,11.0
1334,-2e-05,-3e-05,-2e-05,-2e-05,-1e-05,0.0,-2e-05,2e-05,1,11.0
1335,-2e-05,-3e-05,-2e-05,-2e-05,-1e-05,0.0,-2e-05,2e-05,1,11.0
1336,-2e-05,-3e-05,-2e-05,-2e-05,-1e-05,0.0,-2e-05,2e-05,1,11.0
1338,-2e-05,-2e-05,-1e-05,-1e-05,-1e-05,-3e-05,-1e-05,0.0,1,11.0
1339,1e-05,1e-05,0.0,-1e-05,-1e-05,-2e-05,-5e-05,-4e-05,1,11.0
1340,1e-05,1e-05,0.0,-1e-05,-1e-05,-2e-05,-5e-05,-4e-05,1,11.0
1341,1e-05,1e-05,0.0,-1e-05,-1e-05,-2e-05,-5e-05,-4e-05,1,11.0
1342,1e-05,1e-05,0.0,-1e-05,-1e-05,-2e-05,-5e-05,-4e-05,1,11.0
1343,1e-05,1e-05,0.0,-1e-05,-1e-05,-2e-05,-5e-05,-4e-05,1,11.0
1344,1e-05,1e-05,0.0,-1e-05,-1e-05,-2e-05,-5e-05,-4e-05,1,11.0
1345,1e-05,1e-05,0.0,-1e-05,-1e-05,-2e-05,-5e-05,-4e-05,1,11.0
1346,1e-05,1e-05,0.0,-1e-05,-1e-05,-2e-05,-5e-05,-4e-05,1,11.0
1347,1e-05,1e-05,0.0,-1e-05,-1e-05,-2e-05,-5e-05,-4e-05,1,11.0
1348,1e-05,1e-05,0.0,-1e-05,-1e-05,-2e-05,-5e-05,-4e-05,1,11.0
1349,1e-05,1e-05,0.0,-1e-05,-1e-05,-2e-05,-5e-05,-4e-05,1,11.0
1350,1e-05,1e-05,0.0,-1e-05,-1e-05,-2e-05,-5e-05,-4e-05,1,11.0
1351,1e-05,1e-05,0.0,-1e-05,-1e-05,-2e-05,-5e-05,-4e-05,1,11.0
1352,1e-05,1e-05,0.0,-1e-05,-1e-05,-2e-05,-5e-05,-4e-05,1,11.0
1353,1e-05,1e-05,0.0,-1e-05,-1e-05,-2e-05,-5e-05,-4e-05,1,11.0
1354,1e-05,1e-05,0.0,-1e-05,-1e-05,-2e-05,-5e-05,-4e-05,1,11.0
1355,1e-05,1e-05,0.0,-1e-05,-1e-05,-2e-05,-5e-05,-4e-05,1,11.0
1356,1e-05,1e-05,0.0,-1e-05,-1e-05,-2e-05,-5e-05,-4e-05,1,11.0
1357,1e-05,1e-05,0.0,-1e-05,-1e-05,-2e-05,-5e-05,-4e-05,1,11.0
1358,1e-05,1e-05,0.0,-1e-05,-1e-05,-2e-05,-5e-05,-4e-05,1,11.0
1359,1e-05,1e-05,0.0,-1e-05,-1e-05,-2e-05,-5e-05,-4e-05,1,11.0
1360,1e-05,1e-05,0.0,-1e-05,-1e-05,-2e-05,-5e-05,-4e-05,1,11.0
1361,1e-05,1e-05,0.0,-1e-05,-1e-05,-2e-05,-5e-05,-4e-05,1,11.0
1362,1e-05,1e-05,0.0,-1e-05,-1e-05,-2e-05,-5e-05,-4e-05,1,11.0
1363,1e-05,1e-05,0.0,-1e-05,-1e-05,-2e-05,-5e-05,-4e-05,1,11.0
1364,1e-05,1e-05,0.0,-1e-05,-1e-05,-2e-05,-5e-05,-4e-05,1,11.0
1365,1e-05,1e-05,0.0,-1e-05,-1e-05,-2e-05,-5e-05,-4e-05,1,11.0
1366,1e-05,1e-05,0.0,-1e-05,-1e-05,-2e-05,-5e-05,-4e-05,1,11.0
1367,0.0,-3e-05,0.0,-1e-05,1e-05,-2e-05,-3e-05,-2e-05,1,11.0
1368,-1e-05,-2e-05,-4e-05,-1e-05,0.0,1e-05,-1e-05,-1e-05,1,11.0
1369,-2e-05,-2e-05,-3e-05,-2e-05,-1e-05,-1e-05,-2e-05,-1e-05,1,11.0
1370,-2e-05,-2e-05,-3e-05,-2e-05,-1e-05,-1e-05,-2e-05,-1e-05,1,11.0
1371,-2e-05,-2e-05,-3e-05,-2e-05,-1e-05,-1e-05,-2e-05,-1e-05,1,11.0
1372,-2e-05,-2e-05,-3e-05,-2e-05,-1e-05,-1e-05,-2e-05,-1e-05,1,11.0
1373,-2e-05,0.0,1e-05,-1e-05,-2e-05,1e-05,1e-05,2e-05,1,11.0
1374,-2e-05,0.0,1e-05,-1e-05,-2e-05,1e-05,1e-05,2e-05,1,11.0
1375,-2e-05,0.0,1e-05,-1e-05,-2e-05,1e-05,1e-05,2e-05,1,11.0
1376,-2e-05,0.0,1e-05,-1e-05,-2e-05,1e-05,1e-05,2e-05,1,11.0
1377,-2e-05,0.0,1e-05,-1e-05,-2e-05,1e-05,1e-05,2e-05,1,11.0
1378,-2e-05,0.0,1e-05,-1e-05,-2e-05,1e-05,1e-05,2e-05,1,11.0
1379,-2e-05,0.0,1e-05,-1e-05,-2e-05,1e-05,1e-05,2e-05,1,11.0
1380,-2e-05,0.0,1e-05,-1e-05,-2e-05,1e-05,1e-05,2e-05,1,11.0
1381,-2e-05,0.0,1e-05,-1e-05,-2e-05,1e-05,1e-05,2e-05,1,11.0
1382,-2e-05,0.0,1e-05,-1e-05,-2e-05,1e-05,1e-05,2e-05,1,11.0
1383,-2e-05,0.0,1e-05,-1e-05,-2e-05,1e-05,1e-05,2e-05,1,11.0
1384,-2e-05,0.0,1e-05,-1e-05,-2e-05,1e-05,1e-05,2e-05,1,11.0
1385,-2e-05,0.0,1e-05,-1e-05,-2e-05,1e-05,1e-05,2e-05,1,11.0
1386,-2e-05,0.0,1e-05,-1e-05,-2e-05,1e-05,1e-05,2e-05,1,11.0
1388,-2e-05,0.0,1e-05,-1e-05,-2e-05,1e-05,1e-05,2e-05,1,11.0
1389,-2e-05,0.0,1e-05,-1e-05,-2e-05,1e-05,1e-05,2e-05,1,11.0
1390,-2e-05,0.0,1e-05,-1e-05,-2e-05,1e-05,1e-05,2e-05,1,11.0
1391,-2e-05,0.0,1e-05,-1e-05,-2e-05,1e-05,1e-05,2e-05,1,11.0
1392,-2e-05,0.0,1e-05,-1e-05,-2e-05,1e-05,1e-05,2e-05,1,11.0
1393,-2e-05,0.0,1e-05,-1e-05,-2e-05,1e-05,1e-05,2e-05,1,11.0
1394,-2e-05,0.0,1e-05,-1e-05,-2e-05,1e-05,1e-05,2e-05,1,11.0
1395,-2e-05,0.0,1e-05,-1e-05,-2e-05,1e-05,1e-05,2e-05,1,11.0
1396,-2e-05,0.0,1e-05,-1e-05,-2e-05,1e-05,1e-05,2e-05,1,11.0
1397,-2e-05,0.0,1e-05,-1e-05,-2e-05,1e-05,1e-05,2e-05,1,11.0
1398,1e-05,-2e-05,-3e-05,-1e-05,-1e-05,0.0,-1e-05,2e-05,1,11.0
1399,-2e-05,-1e-05,-2e-05,0.0,-1e-05,-1e-05,-3e-05,-1e-05,1,11.0
1400,-1e-05,1e-05,1e-05,2e-05,0.0,-2e-05,-1e-05,2e-05,1,11.0
1401,-1e-05,1e-05,1e-05,2e-05,0.0,-2e-05,-1e-05,2e-05,1,11.0
1402,-1e-05,1e-05,1e-05,2e-05,0.0,-2e-05,-1e-05,2e-05,1,11.0
1403,-1e-05,1e-05,1e-05,2e-05,0.0,-2e-05,-1e-05,2e-05,1,11.0
1404,-1e-05,1e-05,1e-05,2e-05,0.0,-2e-05,-1e-05,2e-05,1,11.0
1405,-1e-05,1e-05,1e-05,2e-05,0.0,-2e-05,-1e-05,2e-05,1,11.0
1406,-1e-05,1e-05,1e-05,2e-05,0.0,-2e-05,-1e-05,2e-05,1,11.0
1407,-1e-05,1e-05,1e-05,2e-05,0.0,-2e-05,-1e-05,2e-05,1,11.0
1408,-1e-05,1e-05,1e-05,2e-05,0.0,-2e-05,-1e-05,2e-05,1,11.0
1409,-1e-05,1e-05,1e-05,2e-05,0.0,-2e-05,-1e-05,2e-05,1,11.0
1410,-1e-05,1e-05,1e-05,2e-05,0.0,-2e-05,-1e-05,2e-05,1,11.0
1411,-1e-05,1e-05,1e-05,2e-05,0.0,-2e-05,-1e-05,2e-05,1,11.0
1412,-1e-05,1e-05,1e-05,2e-05,0.0,-2e-05,-1e-05,2e-05,1,11.0
1413,-1e-05,1e-05,1e-05,2e-05,0.0,-2e-05,-1e-05,2e-05,1,11.0
1414,-1e-05,1e-05,1e-05,2e-05,0.0,-2e-05,-1e-05,2e-05,1,11.0
1415,-1e-05,1e-05,1e-05,2e-05,0.0,-2e-05,-1e-05,2e-05,1,11.0
1416,-1e-05,1e-05,1e-05,2e-05,0.0,-2e-05,-1e-05,2e-05,1,11.0
1417,-1e-05,1e-05,1e-05,2e-05,0.0,-2e-05,-1e-05,2e-05,1,11.0
1418,-1e-05,1e-05,1e-05,2e-05,0.0,-2e-05,-1e-05,2e-05,1,11.0
1419,-1e-05,1e-05,1e-05,2e-05,0.0,-2e-05,-1e-05,2e-05,1,11.0
1420,0.0,-1e-05,0.0,0.0,1e-05,-1e-05,1e-05,-3e-05,1,11.0
1421,-2e-05,-3e-05,-6e-05,1e-05,-1e-05,-2e-05,0.0,-2e-05,1,11.0
1422,-2e-05,-3e-05,-6e-05,1e-05,-1e-05,-2e-05,0.0,-2e-05,1,11.0
1423,-2e-05,-3e-05,-6e-05,1e-05,-1e-05,-2e-05,0.0,-2e-05,1,11.0
1424,-2e-05,-3e-05,-6e-05,1e-05,-1e-05,-2e-05,0.0,-2e-05,1,11.0
1425,-2e-05,-3e-05,-6e-05,1e-05,-1e-05,-2e-05,0.0,-2e-05,1,11.0
1426,-2e-05,-3e-05,-6e-05,1e-05,-1e-05,-2e-05,0.0,-2e-05,1,11.0
1427,-2e-05,-3e-05,-6e-05,1e-05,-1e-05,-2e-05,0.0,-2e-05,1,11.0
1428,-2e-05,-3e-05,-6e-05,1e-05,-1e-05,-2e-05,0.0,-2e-05,1,11.0
1429,-2e-05,-3e-05,-6e-05,1e-05,-1e-05,-2e-05,0.0,-2e-05,1,11.0
1430,-2e-05,-3e-05,-6e-05,1e-05,-1e-05,-2e-05,0.0,-2e-05,1,11.0
1431,-2e-05,-3e-05,-6e-05,1e-05,-1e-05,-2e-05,0.0,-2e-05,1,11.0
1432,-2e-05,-3e-05,-6e-05,1e-05,-1e-05,-2e-05,0.0,-2e-05,1,11.0
1433,-2e-05,-3e-05,-6e-05,1e-05,-1e-05,-2e-05,0.0,-2e-05,1,11.0
1434,-3e-05,-1e-05,-5e-05,-4e-05,-3e-05,-5e-05,-2e-05,0.0,1,11.0
1435,-3e-05,-1e-05,-5e-05,-4e-05,-3e-05,-5e-05,-2e-05,0.0,1,11.0
1436,-3e-05,-1e-05,-5e-05,-4e-05,-3e-05,-5e-05,-2e-05,0.0,1,11.0
1438,-3e-05,-1e-05,-5e-05,-4e-05,-3e-05,-5e-05,-2e-05,0.0,1,11.0
1439,-3e-05,-1e-05,-5e-05,-4e-05,-3e-05,-5e-05,-2e-05,0.0,1,11.0
1440,0.0,0.0,3e-05,-1e-05,0.0,-1e-05,2e-05,-1e-05,1,11.0
1441,0.0,0.0,3e-05,-1e-05,0.0,-1e-05,2e-05,-1e-05,1,11.0
1442,0.0,0.0,3e-05,-1e-05,0.0,-1e-05,2e-05,-1e-05,1,11.0
1443,0.0,0.0,3e-05,-1e-05,0.0,-1e-05,2e-05,-1e-05,1,11.0
1444,0.0,0.0,3e-05,-1e-05,0.0,-1e-05,2e-05,-1e-05,1,11.0
1445,0.0,0.0,3e-05,-1e-05,0.0,-1e-05,2e-05,-1e-05,1,11.0
1446,0.0,0.0,3e-05,-1e-05,0.0,-1e-05,2e-05,-1e-05,1,11.0
1447,0.0,0.0,3e-05,-1e-05,0.0,-1e-05,2e-05,-1e-05,1,11.0
1448,0.0,0.0,3e-05,-1e-05,0.0,-1e-05,2e-05,-1e-05,1,11.0
1449,0.0,0.0,3e-05,-1e-05,0.0,-1e-05,2e-05,-1e-05,1,11.0
1450,0.0,0.0,3e-05,-1e-05,0.0,-1e-05,2e-05,-1e-05,1,11.0
1451,0.0,0.0,3e-05,-1e-05,0.0,-1e-05,2e-05,-1e-05,1,11.0
1452,0.0,0.0,3e-05,-1e-05,0.0,-1e-05,2e-05,-1e-05,1,11.0
1453,0.0,0.0,3e-05,-1e-05,0.0,-1e-05,2e-05,-1e-05,1,11.0
1454,0.0,0.0,3e-05,-1e-05,0.0,-1e-05,2e-05,-1e-05,1,11.0
1455,0.0,0.0,3e-05,-1e-05,0.0,-1e-05,2e-05,-1e-05,1,11.0
1456,0.0,0.0,3e-05,-1e-05,0.0,-1e-05,2e-05,-1e-05,1,11.0
1457,1e-05,0.0,-2e-05,0.0,-1e-05,1e-05,-1e-05,2e-05,1,11.0
1458,-1e-05,0.0,-2e-05,-1e-05,-3e-05,-3e-05,-1e-05,0.0,1,11.0
1459,-1e-05,0.0,-2e-05,-1e-05,-3e-05,-3e-05,-1e-05,0.0,1,11.0
1460,-1e-05,0.0,-2e-05,-1e-05,-3e-05,-3e-05,-1e-05,0.0,1,11.0
1461,-1e-05,0.0,-2e-05,-1e-05,-3e-05,-3e-05,-1e-05,0.0,1,11.0
1462,-1e-05,0.0,-2e-05,-1e-05,-3e-05,-3e-05,-1e-05,0.0,1,11.0
1463,-1e-05,0.0,-2e-05,-1e-05,-3e-05,-3e-05,-1e-05,0.0,1,11.0
1464,-1e-05,0.0,-2e-05,-1e-05,-3e-05,-3e-05,-1e-05,0.0,1,11.0
1465,-1e-05,0.0,-2e-05,-1e-05,-3e-05,-3e-05,-1e-05,0.0,1,11.0
1466,-1e-05,0.0,-2e-05,-1e-05,-3e-05,-3e-05,-1e-05,0.0,1,11.0
1467,-1e-05,0.0,-2e-05,-1e-05,-3e-05,-3e-05,-1e-05,0.0,1,11.0
1468,-1e-05,0.0,-2e-05,-1e-05,-3e-05,-3e-05,-1e-05,0.0,1,11.0
1469,-1e-05,0.0,-2e-05,-1e-05,-3e-05,-3e-05,-1e-05,0.0,1,11.0
1470,-1e-05,0.0,-2e-05,-1e-05,-3e-05,-3e-05,-1e-05,0.0,1,11.0
1471,-1e-05,0.0,-2e-05,-1e-05,-3e-05,-3e-05,-1e-05,0.0,1,11.0
1472,-1e-05,0.0,-2e-05,-1e-05,-3e-05,-3e-05,-1e-05,0.0,1,11.0
1473,-1e-05,0.0,-2e-05,-1e-05,-3e-05,-3e-05,-1e-05,0.0,1,11.0
1474,-1e-05,0.0,-2e-05,-1e-05,-3e-05,-3e-05,-1e-05,0.0,1,11.0
1475,-1e-05,0.0,-2e-05,-1e-05,-3e-05,-3e-05,-1e-05,0.0,1,11.0
1476,-1e-05,0.0,-2e-05,-1e-05,-3e-05,-3e-05,-1e-05,0.0,1,11.0
1477,-1e-05,0.0,-2e-05,-1e-05,-3e-05,-3e-05,-1e-05,0.0,1,11.0
1478,-1e-05,0.0,-2e-05,-1e-05,-3e-05,-3e-05,-1e-05,0.0,1,11.0
1479,1e-05,1e-05,2e-05,-1e-05,2e-05,3e-05,0.0,-3e-05,1,11.0
1480,0.0,-4e-05,-1e-05,0.0,0.0,-1e-05,0.0,-2e-05,1,11.0
1481,0.0,1e-05,3e-05,-1e-05,-1e-05,2e-05,-1e-05,1e-05,1,11.0
1482,0.0,1e-05,3e-05,-1e-05,-1e-05,2e-05,-1e-05,1e-05,1,11.0
1483,0.0,1e-05,3e-05,-1e-05,-1e-05,2e-05,-1e-05,1e-05,1,11.0
1484,0.0,1e-05,3e-05,-1e-05,-1e-05,2e-05,-1e-05,1e-05,1,11.0
1485,0.0,1e-05,3e-05,-1e-05,-1e-05,2e-05,-1e-05,1e-05,1,11.0
1486,0.0,1e-05,3e-05,-1e-05,-1e-05,2e-05,-1e-05,1e-05,1,11.0
1488,0.0,1e-05,3e-05,-1e-05,-1e-05,2e-05,-1e-05,1e-05,1,11.0
1489,0.0,1e-05,3e-05,-1e-05,-1e-05,2e-05,-1e-05,1e-05,1,11.0
1490,0.0,1e-05,3e-05,-1e-05,-1e-05,2e-05,-1e-05,1e-05,1,11.0
1491,0.0,1e-05,3e-05,-1e-05,-1e-05,2e-05,-1e-05,1e-05,1,11.0
1492,0.0,1e-05,3e-05,-1e-05,-1e-05,2e-05,-1e-05,1e-05,1,11.0
1493,0.0,1e-05,3e-05,-1e-05,-1e-05,2e-05,-1e-05,1e-05,1,11.0
1494,0.0,-1e-05,-4e-05,-1e-05,-1e-05,-3e-05,3e-05,0.0,1,11.0
1495,0.0,-1e-05,-4e-05,-1e-05,-1e-05,-3e-05,3e-05,0.0,1,11.0
1496,0.0,-1e-05,-4e-05,-1e-05,-1e-05,-3e-05,3e-05,0.0,1,11.0
1497,0.0,-1e-05,-4e-05,-1e-05,-1e-05,-3e-05,3e-05,0.0,1,11.0
1498,0.0,-1e-05,-4e-05,-1e-05,-1e-05,-3e-05,3e-05,0.0,1,11.0
1499,0.0,-1e-05,-4e-05,-1e-05,-1e-05,-3e-05,3e-05,0.0,1,11.0
1500,0.0,-1e-05,-4e-05,-1e-05,-1e-05,-3e-05,3e-05,0.0,1,11.0
1501,1e-05,-3e-05,-3e-05,-2e-05,0.0,-4e-05,0.0,-1e-05,1,11.0
1502,1e-05,-3e-05,-3e-05,-2e-05,0.0,-4e-05,0.0,-1e-05,1,11.0
1503,1e-05,-3e-05,-3e-05,-2e-05,0.0,-4e-05,0.0,-1e-05,1,11.0
1504,1e-05,-3e-05,-3e-05,-2e-05,0.0,-4e-05,0.0,-1e-05,1,11.0
1505,1e-05,-3e-05,-3e-05,-2e-05,0.0,-4e-05,0.0,-1e-05,1,11.0
1506,1e-05,-3e-05,-3e-05,-2e-05,0.0,-4e-05,0.0,-1e-05,1,11.0
1507,1e-05,-3e-05,-3e-05,-2e-05,0.0,-4e-05,0.0,-1e-05,1,11.0
1508,1e-05,-3e-05,-3e-05,-2e-05,0.0,-4e-05,0.0,-1e-05,1,11.0
1509,1e-05,-3e-05,-3e-05,-2e-05,0.0,-4e-05,0.0,-1e-05,1,11.0
1510,1e-05,-3e-05,-3e-05,-2e-05,0.0,-4e-05,0.0,-1e-05,1,11.0
1511,1e-05,-3e-05,-3e-05,-2e-05,0.0,-4e-05,0.0,-1e-05,1,11.0
1512,1e-05,-3e-05,-3e-05,-2e-05,0.0,-4e-05,0.0,-1e-05,1,11.0
1513,1e-05,-3e-05,-3e-05,-2e-05,0.0,-4e-05,0.0,-1e-05,1,11.0
1514,1e-05,-3e-05,-3e-05,-2e-05,0.0,-4e-05,0.0,-1e-05,1,11.0
1515,1e-05,-3e-05,-3e-05,-2e-05,0.0,-4e-05,0.0,-1e-05,1,11.0
1516,-2e-05,0.0,0.0,0.0,-2e-05,2e-05,-2e-05,-1e-05,1,11.0
1517,-2e-05,0.0,0.0,0.0,-2e-05,2e-05,-2e-05,-1e-05,1,11.0
1518,1e-05,0.0,-4e-05,-2e-05,2e-05,5e-05,-1e-05,-2e-05,1,11.0
1519,1e-05,0.0,-4e-05,-2e-05,2e-05,5e-05,-1e-05,-2e-05,1,11.0
1520,1e-05,0.0,-4e-05,-2e-05,2e-05,5e-05,-1e-05,-2e-05,1,11.0
1521,1e-05,0.0,-4e-05,-2e-05,2e-05,5e-05,-1e-05,-2e-05,1,11.0
1522,1e-05,0.0,-4e-05,-2e-05,2e-05,5e-05,-1e-05,-2e-05,1,11.0
1523,1e-05,0.0,-4e-05,-2e-05,2e-05,5e-05,-1e-05,-2e-05,1,11.0
1524,1e-05,0.0,-4e-05,-2e-05,2e-05,5e-05,-1e-05,-2e-05,1,11.0
1525,1e-05,0.0,-4e-05,-2e-05,2e-05,5e-05,-1e-05,-2e-05,1,11.0
1526,1e-05,0.0,-4e-05,-2e-05,2e-05,5e-05,-1e-05,-2e-05,1,11.0
1527,1e-05,0.0,-4e-05,-2e-05,2e-05,5e-05,-1e-05,-2e-05,1,11.0
1528,1e-05,0.0,-4e-05,-2e-05,2e-05,5e-05,-1e-05,-2e-05,1,11.0
1529,1e-05,0.0,-4e-05,-2e-05,2e-05,5e-05,-1e-05,-2e-05,1,11.0
1530,1e-05,0.0,-4e-05,-2e-05,2e-05,5e-05,-1e-05,-2e-05,1,11.0
1531,1e-05,0.0,-4e-05,-2e-05,2e-05,5e-05,-1e-05,-2e-05,1,11.0
1532,1e-05,0.0,-4e-05,-2e-05,2e-05,5e-05,-1e-05,-2e-05,1,11.0
1533,1e-05,0.0,-4e-05,-2e-05,2e-05,5e-05,-1e-05,-2e-05,1,11.0
1534,1e-05,0.0,-4e-05,-2e-05,2e-05,5e-05,-1e-05,-2e-05,1,11.0
1535,1e-05,0.0,-4e-05,-2e-05,2e-05,5e-05,-1e-05,-2e-05,1,11.0
1536,1e-05,0.0,-4e-05,-2e-05,2e-05,5e-05,-1e-05,-2e-05,1,11.0
1539,1e-05,0.0,-4e-05,-2e-05,2e-05,5e-05,-1e-05,-2e-05,1,11.0
1540,1e-05,0.0,-4e-05,-2e-05,2e-05,5e-05,-1e-05,-2e-05,1,11.0
1541,1e-05,0.0,-4e-05,-2e-05,2e-05,5e-05,-1e-05,-2e-05,1,11.0
1542,1e-05,0.0,-4e-05,-2e-05,2e-05,5e-05,-1e-05,-2e-05,1,11.0
1543,1e-05,0.0,-4e-05,-2e-05,2e-05,5e-05,-1e-05,-2e-05,1,11.0
1544,1e-05,0.0,-4e-05,-2e-05,2e-05,5e-05,-1e-05,-2e-05,1,11.0
1545,1e-05,0.0,-4e-05,-2e-05,2e-05,5e-05,-1e-05,-2e-05,1,11.0
1546,-3e-05,-1e-05,2e-05,-2e-05,-3e-05,-5e-05,0.0,-1e-05,1,11.0
1547,-1e-05,-5e-05,-3e-05,-2e-05,-1e-05,0.0,1e-05,2e-05,1,11.0
1548,-2e-05,-2e-05,-5e-05,-2e-05,-4e-05,3e-05,2e-05,2e-05,1,11.0
1549,-2e-05,-2e-05,-5e-05,-2e-05,-4e-05,3e-05,2e-05,2e-05,1,11.0
1550,-2e-05,-2e-05,-5e-05,-2e-05,-4e-05,3e-05,2e-05,2e-05,1,11.0
1551,-2e-05,-2e-05,-5e-05,-2e-05,-4e-05,3e-05,2e-05,2e-05,1,11.0
1552,-2e-05,-2e-05,-5e-05,-2e-05,-4e-05,3e-05,2e-05,2e-05,1,11.0
1553,1e-05,2e-05,9e-05,3e-05,1e-05,0.0,-2e-05,-2e-05,1,11.0
1554,1e-05,2e-05,9e-05,3e-05,1e-05,0.0,-2e-05,-2e-05,1,11.0
1555,1e-05,2e-05,9e-05,3e-05,1e-05,0.0,-2e-05,-2e-05,1,11.0
1556,1e-05,2e-05,9e-05,3e-05,1e-05,0.0,-2e-05,-2e-05,1,11.0
1557,1e-05,2e-05,9e-05,3e-05,1e-05,0.0,-2e-05,-2e-05,1,11.0
1558,1e-05,2e-05,9e-05,3e-05,1e-05,0.0,-2e-05,-2e-05,1,11.0
1559,1e-05,2e-05,9e-05,3e-05,1e-05,0.0,-2e-05,-2e-05,1,11.0
1560,-3e-05,-3e-05,-4e-05,-2e-05,-2e-05,-2e-05,-3e-05,-2e-05,1,11.0
1561,-3e-05,-3e-05,-4e-05,-2e-05,-2e-05,-2e-05,-3e-05,-2e-05,1,11.0
1562,-3e-05,-3e-05,-4e-05,-2e-05,-2e-05,-2e-05,-3e-05,-2e-05,1,11.0
1563,-3e-05,-3e-05,-4e-05,-2e-05,-2e-05,-2e-05,-3e-05,-2e-05,1,11.0
1564,-3e-05,-3e-05,-4e-05,-2e-05,-2e-05,-2e-05,-3e-05,-2e-05,1,11.0
1565,-3e-05,-3e-05,-4e-05,-2e-05,-2e-05,-2e-05,-3e-05,-2e-05,1,11.0
1566,-3e-05,-3e-05,-4e-05,-2e-05,-2e-05,-2e-05,-3e-05,-2e-05,1,11.0
1567,-3e-05,-3e-05,-4e-05,-2e-05,-2e-05,-2e-05,-3e-05,-2e-05,1,11.0
1568,-3e-05,-3e-05,-4e-05,-2e-05,-2e-05,-2e-05,-3e-05,-2e-05,1,11.0
1569,-3e-05,-3e-05,-4e-05,-2e-05,-2e-05,-2e-05,-3e-05,-2e-05,1,11.0
1570,-3e-05,-3e-05,-4e-05,-2e-05,-2e-05,-2e-05,-3e-05,-2e-05,1,11.0
1571,-3e-05,-3e-05,-4e-05,-2e-05,-2e-05,-2e-05,-3e-05,-2e-05,1,11.0
1572,-3e-05,-3e-05,-4e-05,-2e-05,-2e-05,-2e-05,-3e-05,-2e-05,1,11.0
1573,-3e-05,-3e-05,-4e-05,-2e-05,-2e-05,-2e-05,-3e-05,-2e-05,1,11.0
1574,-3e-05,-3e-05,-4e-05,-2e-05,-2e-05,-2e-05,-3e-05,-2e-05,1,11.0
1575,-3e-05,-3e-05,-4e-05,-2e-05,-2e-05,-2e-05,-3e-05,-2e-05,1,11.0
1576,-3e-05,-3e-05,-4e-05,-2e-05,-2e-05,-2e-05,-3e-05,-2e-05,1,11.0
1577,1e-05,-2e-05,-4e-05,-2e-05,0.0,-3e-05,-2e-05,0.0,1,11.0
1578,-1e-05,-2e-05,1e-05,1e-05,-1e-05,-3e-05,0.0,-3e-05,1,11.0
1579,-1e-05,-2e-05,1e-05,1e-05,-1e-05,-3e-05,0.0,-3e-05,1,11.0
1580,-1e-05,-2e-05,1e-05,1e-05,-1e-05,-3e-05,0.0,-3e-05,1,11.0
1581,-1e-05,-2e-05,1e-05,1e-05,-1e-05,-3e-05,0.0,-3e-05,1,11.0
1582,-1e-05,-2e-05,1e-05,1e-05,-1e-05,-3e-05,0.0,-3e-05,1,11.0
1583,-1e-05,-2e-05,1e-05,1e-05,-1e-05,-3e-05,0.0,-3e-05,1,11.0
1584,-1e-05,-2e-05,1e-05,1e-05,-1e-05,-3e-05,0.0,-3e-05,1,11.0
1585,-1e-05,-2e-05,1e-05,1e-05,-1e-05,-3e-05,0.0,-3e-05,1,11.0
1587,-1e-05,-2e-05,1e-05,1e-05,-1e-05,-3e-05,0.0,-3e-05,1,11.0
1589,-1e-05,-2e-05,1e-05,1e-05,-1e-05,-3e-05,0.0,-3e-05,1,11.0
1590,-1e-05,-2e-05,1e-05,1e-05,-1e-05,-3e-05,0.0,-3e-05,1,11.0
1591,-1e-05,-2e-05,1e-05,1e-05,-1e-05,-3e-05,0.0,-3e-05,1,11.0
1592,-1e-05,-2e-05,1e-05,1e-05,-1e-05,-3e-05,0.0,-3e-05,1,11.0
1593,-1e-05,-2e-05,1e-05,1e-05,-1e-05,-3e-05,0.0,-3e-05,1,11.0
1594,-1e-05,-2e-05,1e-05,1e-05,-1e-05,-3e-05,0.0,-3e-05,1,11.0
1595,-1e-05,-2e-05,1e-05,1e-05,-1e-05,-3e-05,0.0,-3e-05,1,11.0
1596,-1e-05,-2e-05,1e-05,1e-05,-1e-05,-3e-05,0.0,-3e-05,1,11.0
1597,-1e-05,-2e-05,1e-05,1e-05,-1e-05,-3e-05,0.0,-3e-05,1,11.0
1598,-1e-05,-2e-05,1e-05,1e-05,-1e-05,-3e-05,0.0,-3e-05,1,11.0
1599,-2e-05,1e-05,0.0,1e-05,-2e-05,-1e-05,-1e-05,-1e-05,1,11.0
1600,-2e-05,1e-05,0.0,1e-05,-2e-05,-1e-05,-1e-05,-1e-05,1,11.0
1601,-3e-05,-4e-05,-3e-05,-4e-05,-2e-05,-3e-05,0.0,-1e-05,1,11.0
1602,-3e-05,-4e-05,-3e-05,-4e-05,-2e-05,-3e-05,0.0,-1e-05,1,11.0
1603,-3e-05,-4e-05,-3e-05,-4e-05,-2e-05,-3e-05,0.0,-1e-05,1,11.0
1604,-3e-05,-4e-05,-3e-05,-4e-05,-2e-05,-3e-05,0.0,-1e-05,1,11.0
1605,-3e-05,-4e-05,-3e-05,-4e-05,-2e-05,-3e-05,0.0,-1e-05,1,11.0
1606,-3e-05,-4e-05,-3e-05,-4e-05,-2e-05,-3e-05,0.0,-1e-05,1,11.0
1607,-3e-05,-4e-05,-3e-05,-4e-05,-2e-05,-3e-05,0.0,-1e-05,1,11.0
1608,-3e-05,-4e-05,-3e-05,-4e-05,-2e-05,-3e-05,0.0,-1e-05,1,11.0
1609,-3e-05,-4e-05,-3e-05,-4e-05,-2e-05,-3e-05,0.0,-1e-05,1,11.0
1610,-3e-05,-4e-05,-3e-05,-4e-05,-2e-05,-3e-05,0.0,-1e-05,1,11.0
1611,-3e-05,-4e-05,-3e-05,-4e-05,-2e-05,-3e-05,0.0,-1e-05,1,11.0
1612,-4e-05,1e-05,0.0,0.0,0.0,-1e-05,-2e-05,-3e-05,1,11.0
1613,0.0,0.0,-4e-05,-2e-05,-2e-05,0.0,-1e-05,-2e-05,1,11.0
1614,0.0,0.0,-4e-05,-2e-05,-2e-05,0.0,-1e-05,-2e-05,1,11.0
1615,0.0,0.0,-4e-05,-2e-05,-2e-05,0.0,-1e-05,-2e-05,1,11.0
1616,0.0,0.0,-4e-05,-2e-05,-2e-05,0.0,-1e-05,-2e-05,1,11.0
1617,0.0,0.0,-4e-05,-2e-05,-2e-05,0.0,-1e-05,-2e-05,1,11.0
1618,0.0,0.0,-4e-05,-2e-05,-2e-05,0.0,-1e-05,-2e-05,1,11.0
1619,0.0,0.0,-4e-05,-2e-05,-2e-05,0.0,-1e-05,-2e-05,1,11.0
1620,0.0,0.0,-4e-05,-2e-05,-2e-05,0.0,-1e-05,-2e-05,1,11.0
1621,0.0,0.0,-4e-05,-2e-05,-2e-05,0.0,-1e-05,-2e-05,1,11.0
1622,-1e-05,3e-05,2e-05,0.0,1e-05,0.0,-3e-05,3e-05,1,11.0
1623,-1e-05,3e-05,2e-05,0.0,1e-05,0.0,-3e-05,3e-05,1,11.0
1624,-1e-05,3e-05,2e-05,0.0,1e-05,0.0,-3e-05,3e-05,1,11.0
1625,-1e-05,3e-05,2e-05,0.0,1e-05,0.0,-3e-05,3e-05,1,11.0
1626,-1e-05,3e-05,2e-05,0.0,1e-05,0.0,-3e-05,3e-05,1,11.0
1627,-1e-05,3e-05,2e-05,0.0,1e-05,0.0,-3e-05,3e-05,1,11.0
1628,-1e-05,3e-05,2e-05,0.0,1e-05,0.0,-3e-05,3e-05,1,11.0
1629,-1e-05,3e-05,2e-05,0.0,1e-05,0.0,-3e-05,3e-05,1,11.0
1630,-1e-05,3e-05,2e-05,0.0,1e-05,0.0,-3e-05,3e-05,1,11.0
1631,-1e-05,3e-05,2e-05,0.0,1e-05,0.0,-3e-05,3e-05,1,11.0
1632,-1e-05,3e-05,2e-05,0.0,1e-05,0.0,-3e-05,3e-05,1,11.0
1633,-1e-05,3e-05,2e-05,0.0,1e-05,0.0,-3e-05,3e-05,1,11.0
1634,-1e-05,3e-05,2e-05,0.0,1e-05,0.0,-3e-05,3e-05,1,11.0
1635,-1e-05,3e-05,2e-05,0.0,1e-05,0.0,-3e-05,3e-05,1,11.0
1637,-3e-05,-2e-05,0.0,-1e-05,1e-05,-1e-05,-4e-05,0.0,1,11.0
1639,-3e-05,-2e-05,0.0,-1e-05,1e-05,-1e-05,-4e-05,0.0,1,11.0
1640,-3e-05,-2e-05,0.0,-1e-05,1e-05,-1e-05,-4e-05,0.0,1,11.0
1641,-3e-05,-2e-05,0.0,-1e-05,1e-05,-1e-05,-4e-05,0.0,1,11.0
1642,-3e-05,-2e-05,0.0,-1e-05,1e-05,-1e-05,-4e-05,0.0,1,11.0
1643,-3e-05,-2e-05,0.0,-1e-05,1e-05,-1e-05,-4e-05,0.0,1,11.0
1644,-1e-05,0.0,2e-05,1e-05,0.0,-1e-05,-2e-05,-2e-05,1,11.0
1645,-1e-05,0.0,2e-05,1e-05,0.0,-1e-05,-2e-05,-2e-05,1,11.0
1646,-1e-05,0.0,2e-05,1e-05,0.0,-1e-05,-2e-05,-2e-05,1,11.0
1647,-1e-05,0.0,2e-05,1e-05,0.0,-1e-05,-2e-05,-2e-05,1,11.0
1648,-1e-05,0.0,2e-05,1e-05,0.0,-1e-05,-2e-05,-2e-05,1,11.0
1649,-1e-05,0.0,2e-05,1e-05,0.0,-1e-05,-2e-05,-2e-05,1,11.0
1650,-1e-05,0.0,2e-05,1e-05,0.0,-1e-05,-2e-05,-2e-05,1,11.0
1651,-1e-05,0.0,2e-05,1e-05,0.0,-1e-05,-2e-05,-2e-05,1,11.0
1652,-1e-05,0.0,2e-05,1e-05,0.0,-1e-05,-2e-05,-2e-05,1,11.0
1653,-1e-05,0.0,2e-05,1e-05,0.0,-1e-05,-2e-05,-2e-05,1,11.0
1654,-1e-05,0.0,2e-05,1e-05,0.0,-1e-05,-2e-05,-2e-05,1,11.0
1655,-1e-05,0.0,2e-05,1e-05,0.0,-1e-05,-2e-05,-2e-05,1,11.0
1656,-1e-05,0.0,2e-05,1e-05,0.0,-1e-05,-2e-05,-2e-05,1,11.0
1657,-1e-05,0.0,2e-05,1e-05,0.0,-1e-05,-2e-05,-2e-05,1,11.0
1658,-1e-05,0.0,2e-05,1e-05,0.0,-1e-05,-2e-05,-2e-05,1,11.0
1659,-5e-05,-2e-05,-2e-05,-2e-05,1e-05,3e-05,-1e-05,-2e-05,1,11.0
1660,-5e-05,-2e-05,-2e-05,-2e-05,1e-05,3e-05,-1e-05,-2e-05,1,11.0
1661,1e-05,-1e-05,0.0,0.0,-2e-05,-2e-05,0.0,-2e-05,1,11.0
1662,1e-05,-1e-05,0.0,0.0,-2e-05,-2e-05,0.0,-2e-05,1,11.0
1663,1e-05,-1e-05,0.0,0.0,-2e-05,-2e-05,0.0,-2e-05,1,11.0
1664,1e-05,-1e-05,0.0,0.0,-2e-05,-2e-05,0.0,-2e-05,1,11.0
1665,1e-05,-1e-05,0.0,0.0,-2e-05,-2e-05,0.0,-2e-05,1,11.0
1666,1e-05,-1e-05,0.0,0.0,-2e-05,-2e-05,0.0,-2e-05,1,11.0
1667,1e-05,-1e-05,0.0,0.0,-2e-05,-2e-05,0.0,-2e-05,1,11.0
1668,1e-05,-1e-05,0.0,0.0,-2e-05,-2e-05,0.0,-2e-05,1,11.0
1669,1e-05,-1e-05,0.0,0.0,-2e-05,-2e-05,0.0,-2e-05,1,11.0
1670,1e-05,-1e-05,0.0,0.0,-2e-05,-2e-05,0.0,-2e-05,1,11.0
1671,1e-05,-1e-05,0.0,0.0,-2e-05,-2e-05,0.0,-2e-05,1,11.0
1672,1e-05,-1e-05,0.0,0.0,-2e-05,-2e-05,0.0,-2e-05,1,11.0
1673,1e-05,-3e-05,-4e-05,-4e-05,1e-05,2e-05,1e-05,-2e-05,1,11.0
1674,1e-05,-3e-05,-4e-05,-4e-05,1e-05,2e-05,1e-05,-2e-05,1,11.0
1675,1e-05,-3e-05,-4e-05,-4e-05,1e-05,2e-05,1e-05,-2e-05,1,11.0
1676,1e-05,-3e-05,-4e-05,-4e-05,1e-05,2e-05,1e-05,-2e-05,1,11.0
1677,1e-05,-3e-05,-4e-05,-4e-05,1e-05,2e-05,1e-05,-2e-05,1,11.0
1678,1e-05,-3e-05,-4e-05,-4e-05,1e-05,2e-05,1e-05,-2e-05,1,11.0
1679,1e-05,-3e-05,-4e-05,-4e-05,1e-05,2e-05,1e-05,-2e-05,1,11.0
1680,1e-05,-3e-05,-4e-05,-4e-05,1e-05,2e-05,1e-05,-2e-05,1,11.0
1681,1e-05,-3e-05,-4e-05,-4e-05,1e-05,2e-05,1e-05,-2e-05,1,11.0
1682,1e-05,-3e-05,-4e-05,-4e-05,1e-05,2e-05,1e-05,-2e-05,1,11.0
1683,1e-05,-3e-05,-4e-05,-4e-05,1e-05,2e-05,1e-05,-2e-05,1,11.0
1684,1e-05,-3e-05,-4e-05,-4e-05,1e-05,2e-05,1e-05,-2e-05,1,11.0
1685,1e-05,-3e-05,-4e-05,-4e-05,1e-05,2e-05,1e-05,-2e-05,1,11.0
1687,1e-05,-3e-05,-4e-05,-4e-05,1e-05,2e-05,1e-05,-2e-05,1,11.0
1689,-1e-05,-1e-05,1e-05,-2e-05,-2e-05,-1e-05,-1e-05,-2e-05,1,11.0
1690,-1e-05,2e-05,2e-05,0.0,-2e-05,0.0,-2e-05,-3e-05,1,11.0
1691,-1e-05,2e-05,2e-05,0.0,-2e-05,0.0,-2e-05,-3e-05,1,11.0
1692,-1e-05,2e-05,2e-05,0.0,-2e-05,0.0,-2e-05,-3e-05,1,11.0
1693,-1e-05,2e-05,2e-05,0.0,-2e-05,0.0,-2e-05,-3e-05,1,11.0
1694,-1e-05,2e-05,2e-05,0.0,-2e-05,0.0,-2e-05,-3e-05,1,11.0
1695,-1e-05,2e-05,2e-05,0.0,-2e-05,0.0,-2e-05,-3e-05,1,11.0
1696,-2e-05,-4e-05,-3e-05,0.0,-3e-05,-4e-05,-3e-05,-3e-05,1,11.0
1697,-2e-05,-4e-05,-3e-05,0.0,-3e-05,-4e-05,-3e-05,-3e-05,1,11.0
1698,-2e-05,-2e-05,-3e-05,-2e-05,-1e-05,-2e-05,-1e-05,1e-05,1,11.0
1699,-2e-05,-2e-05,-3e-05,-2e-05,-1e-05,-2e-05,-1e-05,1e-05,1,11.0
1700,-2e-05,-2e-05,-3e-05,-2e-05,-1e-05,-2e-05,-1e-05,1e-05,1,11.0
1701,-2e-05,-2e-05,-3e-05,-2e-05,-1e-05,-2e-05,-1e-05,1e-05,1,11.0
1702,-2e-05,-2e-05,-3e-05,-2e-05,-1e-05,-2e-05,-1e-05,1e-05,1,11.0
1703,-2e-05,-2e-05,-3e-05,-2e-05,-1e-05,-2e-05,-1e-05,1e-05,1,11.0
1704,-2e-05,-2e-05,-3e-05,-2e-05,-1e-05,-2e-05,-1e-05,1e-05,1,11.0
1705,-2e-05,-2e-05,-3e-05,-2e-05,-1e-05,-2e-05,-1e-05,1e-05,1,11.0
1706,-2e-05,-2e-05,-3e-05,-2e-05,-1e-05,-2e-05,-1e-05,1e-05,1,11.0
1707,-2e-05,-2e-05,-3e-05,-2e-05,-1e-05,-2e-05,-1e-05,1e-05,1,11.0
1708,-2e-05,-2e-05,-3e-05,-2e-05,-1e-05,-2e-05,-1e-05,1e-05,1,11.0
1709,-2e-05,-2e-05,-3e-05,-2e-05,-1e-05,-2e-05,-1e-05,1e-05,1,11.0
1710,-2e-05,-2e-05,-3e-05,-2e-05,-1e-05,-2e-05,-1e-05,1e-05,1,11.0
1711,-2e-05,-2e-05,-3e-05,-2e-05,-1e-05,-2e-05,-1e-05,1e-05,1,11.0
1712,-2e-05,-2e-05,-3e-05,-2e-05,-1e-05,-2e-05,-1e-05,1e-05,1,11.0
1713,-2e-05,-2e-05,-3e-05,-2e-05,-1e-05,-2e-05,-1e-05,1e-05,1,11.0
1714,-2e-05,-2e-05,-3e-05,-2e-05,-1e-05,-2e-05,-1e-05,1e-05,1,11.0
1715,-2e-05,-2e-05,-3e-05,-2e-05,-1e-05,-2e-05,-1e-05,1e-05,1,11.0
1716,-2e-05,-2e-05,-3e-05,-2e-05,-1e-05,-2e-05,-1e-05,1e-05,1,11.0
1717,-2e-05,-2e-05,-3e-05,-2e-05,-1e-05,-2e-05,-1e-05,1e-05,1,11.0
1718,-2e-05,-2e-05,-3e-05,-2e-05,-1e-05,-2e-05,-1e-05,1e-05,1,11.0
1719,-2e-05,0.0,0.0,-2e-05,-1e-05,-5e-05,-1e-05,0.0,1,11.0
1720,-2e-05,0.0,0.0,-2e-05,-1e-05,-5e-05,-1e-05,0.0,1,11.0
1721,-2e-05,-1e-05,3e-05,-2e-05,-1e-05,1e-05,0.0,2e-05,1,11.0
1722,-2e-05,-1e-05,3e-05,-2e-05,-1e-05,1e-05,0.0,2e-05,1,11.0
1723,-2e-05,-1e-05,3e-05,-2e-05,-1e-05,1e-05,0.0,2e-05,1,11.0
1724,-2e-05,-1e-05,3e-05,-2e-05,-1e-05,1e-05,0.0,2e-05,1,11.0
1725,-2e-05,-1e-05,3e-05,-2e-05,-1e-05,1e-05,0.0,2e-05,1,11.0
1726,-2e-05,-1e-05,3e-05,-2e-05,-1e-05,1e-05,0.0,2e-05,1,11.0
1727,-2e-05,-1e-05,3e-05,-2e-05,-1e-05,1e-05,0.0,2e-05,1,11.0
1728,-2e-05,-1e-05,3e-05,-2e-05,-1e-05,1e-05,0.0,2e-05,1,11.0
1729,-2e-05,-1e-05,3e-05,-2e-05,-1e-05,1e-05,0.0,2e-05,1,11.0
1730,-2e-05,-1e-05,3e-05,-2e-05,-1e-05,1e-05,0.0,2e-05,1,11.0
1731,-2e-05,-1e-05,3e-05,-2e-05,-1e-05,1e-05,0.0,2e-05,1,11.0
1732,-2e-05,-1e-05,3e-05,-2e-05,-1e-05,1e-05,0.0,2e-05,1,11.0
1733,-2e-05,-2e-05,-5e-05,-3e-05,-5e-05,-7e-05,2e-05,0.0,1,11.0
1734,-2e-05,-2e-05,-5e-05,-3e-05,-5e-05,-7e-05,2e-05,0.0,1,11.0
1735,-2e-05,-2e-05,-5e-05,-3e-05,-5e-05,-7e-05,2e-05,0.0,1,11.0
1737,-2e-05,-2e-05,-5e-05,-3e-05,-5e-05,-7e-05,2e-05,0.0,1,11.0
1739,-2e-05,-2e-05,-5e-05,-3e-05,-5e-05,-7e-05,2e-05,0.0,1,11.0
1740,-2e-05,-2e-05,-5e-05,-3e-05,-5e-05,-7e-05,2e-05,0.0,1,11.0
1741,1e-05,2e-05,0.0,0.0,0.0,3e-05,-2e-05,1e-05,1,11.0
1742,-2e-05,2e-05,0.0,1e-05,-1e-05,1e-05,-1e-05,-3e-05,1,11.0
1743,-2e-05,2e-05,0.0,1e-05,-1e-05,1e-05,-1e-05,-3e-05,1,11.0
1744,-2e-05,2e-05,0.0,1e-05,-1e-05,1e-05,-1e-05,-3e-05,1,11.0
1745,-2e-05,2e-05,0.0,1e-05,-1e-05,1e-05,-1e-05,-3e-05,1,11.0
1746,-2e-05,2e-05,0.0,1e-05,-1e-05,1e-05,-1e-05,-3e-05,1,11.0
1747,-2e-05,2e-05,0.0,1e-05,-1e-05,1e-05,-1e-05,-3e-05,1,11.0
1748,-2e-05,2e-05,0.0,1e-05,-1e-05,1e-05,-1e-05,-3e-05,1,11.0
1749,-2e-05,2e-05,0.0,1e-05,-1e-05,1e-05,-1e-05,-3e-05,1,11.0
1750,-2e-05,2e-05,0.0,1e-05,-1e-05,1e-05,-1e-05,-3e-05,1,11.0
1751,-2e-05,2e-05,0.0,1e-05,-1e-05,1e-05,-1e-05,-3e-05,1,11.0
1752,-2e-05,2e-05,0.0,1e-05,-1e-05,1e-05,-1e-05,-3e-05,1,11.0
1753,-2e-05,2e-05,0.0,1e-05,-1e-05,1e-05,-1e-05,-3e-05,1,11.0
1754,-2e-05,2e-05,0.0,1e-05,-1e-05,1e-05,-1e-05,-3e-05,1,11.0
1755,-2e-05,2e-05,0.0,1e-05,-1e-05,1e-05,-1e-05,-3e-05,1,11.0
1756,-1e-05,-2e-05,-5e-05,1e-05,0.0,-1e-05,-1e-05,-2e-05,1,11.0
1757,-1e-05,-2e-05,-5e-05,1e-05,0.0,-1e-05,-1e-05,-2e-05,1,11.0
1758,-1e-05,-2e-05,-5e-05,1e-05,0.0,-1e-05,-1e-05,-2e-05,1,11.0
1759,-1e-05,-2e-05,-5e-05,1e-05,0.0,-1e-05,-1e-05,-2e-05,1,11.0
1760,-1e-05,-2e-05,-5e-05,1e-05,0.0,-1e-05,-1e-05,-2e-05,1,11.0
1761,-1e-05,-2e-05,-5e-05,1e-05,0.0,-1e-05,-1e-05,-2e-05,1,11.0
1762,-1e-05,-2e-05,-5e-05,1e-05,0.0,-1e-05,-1e-05,-2e-05,1,11.0
1763,-1e-05,-2e-05,-5e-05,1e-05,0.0,-1e-05,-1e-05,-2e-05,1,11.0
1764,-2e-05,1e-05,-2e-05,0.0,-1e-05,-4e-05,-2e-05,-6e-05,1,11.0
1765,-2e-05,1e-05,-2e-05,0.0,-1e-05,-4e-05,-2e-05,-6e-05,1,11.0
1766,-2e-05,1e-05,-2e-05,0.0,-1e-05,-4e-05,-2e-05,-6e-05,1,11.0
1767,-2e-05,1e-05,-2e-05,0.0,-1e-05,-4e-05,-2e-05,-6e-05,1,11.0
1768,-2e-05,1e-05,-2e-05,0.0,-1e-05,-4e-05,-2e-05,-6e-05,1,11.0
1769,-2e-05,1e-05,-2e-05,0.0,-1e-05,-4e-05,-2e-05,-6e-05,1,11.0
1770,-2e-05,1e-05,-2e-05,0.0,-1e-05,-4e-05,-2e-05,-6e-05,1,11.0
1771,-2e-05,1e-05,-2e-05,0.0,-1e-05,-4e-05,-2e-05,-6e-05,1,11.0
1772,-2e-05,1e-05,-2e-05,0.0,-1e-05,-4e-05,-2e-05,-6e-05,1,11.0
1773,-2e-05,1e-05,-2e-05,0.0,-1e-05,-4e-05,-2e-05,-6e-05,1,11.0
1774,-2e-05,1e-05,-2e-05,0.0,-1e-05,-4e-05,-2e-05,-6e-05,1,11.0
1775,-2e-05,1e-05,-2e-05,0.0,-1e-05,-4e-05,-2e-05,-6e-05,1,11.0
1776,-2e-05,1e-05,-2e-05,0.0,-1e-05,-4e-05,-2e-05,-6e-05,1,11.0
1777,-2e-05,1e-05,-2e-05,0.0,-1e-05,-4e-05,-2e-05,-6e-05,1,11.0
1778,-2e-05,1e-05,-2e-05,0.0,-1e-05,-4e-05,-2e-05,-6e-05,1,11.0
1779,0.0,1e-05,-1e-05,-1e-05,2e-05,3e-05,1e-05,1e-05,1,11.0
1780,0.0,1e-05,-1e-05,-1e-05,2e-05,3e-05,1e-05,1e-05,1,11.0
1781,0.0,1e-05,-1e-05,-1e-05,2e-05,3e-05,1e-05,1e-05,1,11.0
1782,0.0,1e-05,-1e-05,-1e-05,2e-05,3e-05,1e-05,1e-05,1,11.0
1783,0.0,1e-05,-1e-05,-1e-05,2e-05,3e-05,1e-05,1e-05,1,11.0
1784,0.0,1e-05,-1e-05,-1e-05,2e-05,3e-05,1e-05,1e-05,1,11.0
1785,-2e-05,0.0,0.0,-1e-05,-1e-05,0.0,-1e-05,0.0,1,11.0
1786,-2e-05,0.0,0.0,-1e-05,-1e-05,0.0,-1e-05,0.0,1,11.0
1788,-2e-05,0.0,0.0,-1e-05,-1e-05,0.0,-1e-05,0.0,1,11.0
1789,-2e-05,0.0,0.0,-1e-05,-1e-05,0.0,-1e-05,0.0,1,11.0
1790,-2e-05,0.0,0.0,-1e-05,-1e-05,0.0,-1e-05,0.0,1,11.0
1791,-2e-05,0.0,0.0,-1e-05,-1e-05,0.0,-1e-05,0.0,1,11.0
1792,-2e-05,0.0,0.0,-1e-05,-1e-05,0.0,-1e-05,0.0,1,11.0
1793,1e-05,-1e-05,-1e-05,-1e-05,-3e-05,1e-05,0.0,-4e-05,1,11.0
1794,1e-05,-1e-05,-1e-05,-1e-05,-3e-05,1e-05,0.0,-4e-05,1,11.0
1795,1e-05,-1e-05,-1e-05,-1e-05,-3e-05,1e-05,0.0,-4e-05,1,11.0
1796,1e-05,-1e-05,-1e-05,-1e-05,-3e-05,1e-05,0.0,-4e-05,1,11.0
1797,1e-05,-1e-05,-1e-05,-1e-05,-3e-05,1e-05,0.0,-4e-05,1,11.0
1798,1e-05,-1e-05,-1e-05,-1e-05,-3e-05,1e-05,0.0,-4e-05,1,11.0
1799,1e-05,-1e-05,-1e-05,-1e-05,-3e-05,1e-05,0.0,-4e-05,1,11.0
1800,1e-05,-1e-05,-1e-05,-1e-05,-3e-05,1e-05,0.0,-4e-05,1,11.0
1801,1e-05,-1e-05,-1e-05,-1e-05,-3e-05,1e-05,0.0,-4e-05,1,11.0
1802,1e-05,-1e-05,-1e-05,-1e-05,-3e-05,1e-05,0.0,-4e-05,1,11.0
1803,1e-05,-1e-05,-1e-05,-1e-05,-3e-05,1e-05,0.0,-4e-05,1,11.0
1804,1e-05,-1e-05,-1e-05,-1e-05,-3e-05,1e-05,0.0,-4e-05,1,11.0
1805,1e-05,-1e-05,-1e-05,-1e-05,-3e-05,1e-05,0.0,-4e-05,1,11.0
1806,1e-05,-1e-05,-1e-05,-1e-05,-3e-05,1e-05,0.0,-4e-05,1,11.0
1807,1e-05,-1e-05,-1e-05,-1e-05,-3e-05,1e-05,0.0,-4e-05,1,11.0
1808,-1e-05,1e-05,2e-05,-1e-05,-3e-05,-8e-05,0.0,-2e-05,1,11.0
1809,-1e-05,-3e-05,-4e-05,-3e-05,-2e-05,-3e-05,1e-05,-1e-05,1,11.0
1810,-1e-05,-3e-05,-4e-05,-3e-05,-2e-05,-3e-05,1e-05,-1e-05,1,11.0
1811,-1e-05,-3e-05,-4e-05,-3e-05,-2e-05,-3e-05,1e-05,-1e-05,1,11.0
1812,-1e-05,-3e-05,-4e-05,-3e-05,-2e-05,-3e-05,1e-05,-1e-05,1,11.0
1813,-1e-05,-3e-05,-4e-05,-3e-05,-2e-05,-3e-05,1e-05,-1e-05,1,11.0
1814,-1e-05,-3e-05,-4e-05,-3e-05,-2e-05,-3e-05,1e-05,-1e-05,1,11.0
1815,-2e-05,-2e-05,0.0,0.0,0.0,-2e-05,-3e-05,1e-05,1,11.0
1816,-2e-05,-2e-05,0.0,0.0,0.0,-2e-05,-3e-05,1e-05,1,11.0
1817,-2e-05,-2e-05,0.0,0.0,0.0,-2e-05,-3e-05,1e-05,1,11.0
1818,-2e-05,-2e-05,0.0,0.0,0.0,-2e-05,-3e-05,1e-05,1,11.0
1819,-2e-05,-2e-05,0.0,0.0,0.0,-2e-05,-3e-05,1e-05,1,11.0
1820,-2e-05,-2e-05,0.0,0.0,0.0,-2e-05,-3e-05,1e-05,1,11.0
1821,-2e-05,-2e-05,0.0,0.0,0.0,-2e-05,-3e-05,1e-05,1,11.0
1822,-2e-05,-2e-05,0.0,0.0,0.0,-2e-05,-3e-05,1e-05,1,11.0
1823,0.0,0.0,-1e-05,-1e-05,-1e-05,1e-05,-2e-05,-3e-05,1,11.0
1824,-2e-05,-1e-05,0.0,2e-05,1e-05,0.0,0.0,-2e-05,1,11.0
1825,-2e-05,-1e-05,0.0,2e-05,1e-05,0.0,0.0,-2e-05,1,11.0
1826,-2e-05,-1e-05,0.0,2e-05,1e-05,0.0,0.0,-2e-05,1,11.0
1827,-2e-05,-1e-05,0.0,2e-05,1e-05,0.0,0.0,-2e-05,1,11.0
1828,-2e-05,-1e-05,0.0,2e-05,1e-05,0.0,0.0,-2e-05,1,11.0
1829,-2e-05,-1e-05,0.0,2e-05,1e-05,0.0,0.0,-2e-05,1,11.0
1830,-2e-05,-1e-05,0.0,2e-05,1e-05,0.0,0.0,-2e-05,1,11.0
1831,-2e-05,-1e-05,0.0,2e-05,1e-05,0.0,0.0,-2e-05,1,11.0
1832,-2e-05,-1e-05,0.0,2e-05,1e-05,0.0,0.0,-2e-05,1,11.0
1833,-2e-05,-1e-05,0.0,2e-05,1e-05,0.0,0.0,-2e-05,1,11.0
1834,-2e-05,-1e-05,0.0,2e-05,1e-05,0.0,0.0,-2e-05,1,11.0
1835,-2e-05,-1e-05,0.0,2e-05,1e-05,0.0,0.0,-2e-05,1,11.0
1836,-2e-05,-1e-05,0.0,2e-05,1e-05,0.0,0.0,-2e-05,1,11.0
1838,-2e-05,-1e-05,0.0,2e-05,1e-05,0.0,0.0,-2e-05,1,11.0
1839,0.0,-3e-05,-2e-05,-1e-05,1e-05,-1e-05,-1e-05,-3e-05,1,11.0
1840,-2e-05,-3e-05,-1e-05,-1e-05,-2e-05,0.0,-1e-05,-2e-05,1,11.0
1841,0.0,-2e-05,-3e-05,-1e-05,-1e-05,1e-05,0.0,0.0,1,11.0
1842,0.0,-2e-05,-3e-05,-1e-05,-1e-05,1e-05,0.0,0.0,1,11.0
1843,0.0,-2e-05,-3e-05,-1e-05,-1e-05,1e-05,0.0,0.0,1,11.0
1844,0.0,-2e-05,-3e-05,-1e-05,-1e-05,1e-05,0.0,0.0,1,11.0
1845,0.0,-2e-05,-3e-05,-1e-05,-1e-05,1e-05,0.0,0.0,1,11.0
1846,0.0,-2e-05,-3e-05,-1e-05,-1e-05,1e-05,0.0,0.0,1,11.0
1847,0.0,-2e-05,-3e-05,-1e-05,-1e-05,1e-05,0.0,0.0,1,11.0
1848,0.0,-2e-05,-3e-05,-1e-05,-1e-05,1e-05,0.0,0.0,1,11.0
1849,0.0,-2e-05,-3e-05,-1e-05,-1e-05,1e-05,0.0,0.0,1,11.0
1850,0.0,-2e-05,-3e-05,-1e-05,-1e-05,1e-05,0.0,0.0,1,11.0
1851,0.0,-2e-05,-3e-05,-1e-05,-1e-05,1e-05,0.0,0.0,1,11.0
1852,0.0,-2e-05,-3e-05,-1e-05,-1e-05,1e-05,0.0,0.0,1,11.0
1853,0.0,2e-05,3e-05,1e-05,-2e-05,-1e-05,-1e-05,0.0,1,11.0
1854,0.0,2e-05,3e-05,1e-05,-2e-05,-1e-05,-1e-05,0.0,1,11.0
1855,0.0,2e-05,3e-05,1e-05,-2e-05,-1e-05,-1e-05,0.0,1,11.0
1856,0.0,2e-05,3e-05,1e-05,-2e-05,-1e-05,-1e-05,0.0,1,11.0
1857,0.0,2e-05,3e-05,1e-05,-2e-05,-1e-05,-1e-05,0.0,1,11.0
1858,0.0,2e-05,3e-05,1e-05,-2e-05,-1e-05,-1e-05,0.0,1,11.0
1859,0.0,2e-05,3e-05,1e-05,-2e-05,-1e-05,-1e-05,0.0,1,11.0
1860,0.0,2e-05,3e-05,1e-05,-2e-05,-1e-05,-1e-05,0.0,1,11.0
1861,1e-05,-4e-05,-5e-05,-2e-05,0.0,-4e-05,0.0,-2e-05,1,11.0
1862,0.0,-4e-05,-3e-05,-1e-05,-1e-05,-1e-05,-2e-05,-1e-05,1,11.0
1863,0.0,-4e-05,-3e-05,-1e-05,-1e-05,-1e-05,-2e-05,-1e-05,1,11.0
1864,0.0,-4e-05,-3e-05,-1e-05,-1e-05,-1e-05,-2e-05,-1e-05,1,11.0
1865,0.0,-4e-05,-3e-05,-1e-05,-1e-05,-1e-05,-2e-05,-1e-05,1,11.0
1866,0.0,-4e-05,-3e-05,-1e-05,-1e-05,-1e-05,-2e-05,-1e-05,1,11.0
1867,0.0,-4e-05,-3e-05,-1e-05,-1e-05,-1e-05,-2e-05,-1e-05,1,11.0
1868,0.0,-4e-05,-3e-05,-1e-05,-1e-05,-1e-05,-2e-05,-1e-05,1,11.0
1869,0.0,-4e-05,-3e-05,-1e-05,-1e-05,-1e-05,-2e-05,-1e-05,1,11.0
1870,0.0,-4e-05,-3e-05,-1e-05,-1e-05,-1e-05,-2e-05,-1e-05,1,11.0
1871,0.0,-4e-05,-3e-05,-1e-05,-1e-05,-1e-05,-2e-05,-1e-05,1,11.0
1872,0.0,-4e-05,-3e-05,-1e-05,-1e-05,-1e-05,-2e-05,-1e-05,1,11.0
1873,0.0,-4e-05,-3e-05,-1e-05,-1e-05,-1e-05,-2e-05,-1e-05,1,11.0
1874,0.0,-4e-05,-3e-05,-1e-05,-1e-05,-1e-05,-2e-05,-1e-05,1,11.0
1875,0.0,-4e-05,-3e-05,-1e-05,-1e-05,-1e-05,-2e-05,-1e-05,1,11.0
1876,1e-05,-2e-05,1e-05,-2e-05,-2e-05,1e-05,0.0,0.0,1,11.0
1877,-2e-05,0.0,1e-05,0.0,-2e-05,3e-05,0.0,-2e-05,1,11.0
1878,-1e-05,-3e-05,-8e-05,-3e-05,-4e-05,-4e-05,-2e-05,0.0,1,11.0
1879,-1e-05,-3e-05,-8e-05,-3e-05,-4e-05,-4e-05,-2e-05,0.0,1,11.0
1880,-1e-05,-3e-05,-8e-05,-3e-05,-4e-05,-4e-05,-2e-05,0.0,1,11.0
1881,-1e-05,-3e-05,-8e-05,-3e-05,-4e-05,-4e-05,-2e-05,0.0,1,11.0
1882,-1e-05,-3e-05,-8e-05,-3e-05,-4e-05,-4e-05,-2e-05,0.0,1,11.0
1883,-1e-05,-3e-05,-8e-05,-3e-05,-4e-05,-4e-05,-2e-05,0.0,1,11.0
1884,-1e-05,-3e-05,-8e-05,-3e-05,-4e-05,-4e-05,-2e-05,0.0,1,11.0
1885,-1e-05,-3e-05,-8e-05,-3e-05,-4e-05,-4e-05,-2e-05,0.0,1,11.0
1886,-1e-05,-3e-05,-8e-05,-3e-05,-4e-05,-4e-05,-2e-05,0.0,1,11.0
1888,-1e-05,-3e-05,-8e-05,-3e-05,-4e-05,-4e-05,-2e-05,0.0,1,11.0
1889,-1e-05,-3e-05,-8e-05,-3e-05,-4e-05,-4e-05,-2e-05,0.0,1,11.0
1890,-1e-05,-3e-05,-8e-05,-3e-05,-4e-05,-4e-05,-2e-05,0.0,1,11.0
1891,-1e-05,-3e-05,-8e-05,-3e-05,-4e-05,-4e-05,-2e-05,0.0,1,11.0
1892,-1e-05,-3e-05,-8e-05,-3e-05,-4e-05,-4e-05,-2e-05,0.0,1,11.0
1893,-1e-05,-3e-05,-8e-05,-3e-05,-4e-05,-4e-05,-2e-05,0.0,1,11.0
1894,-1e-05,-3e-05,-8e-05,-3e-05,-4e-05,-4e-05,-2e-05,0.0,1,11.0
1895,-1e-05,-3e-05,-8e-05,-3e-05,-4e-05,-4e-05,-2e-05,0.0,1,11.0
1896,-1e-05,-3e-05,-8e-05,-3e-05,-4e-05,-4e-05,-2e-05,0.0,1,11.0
1897,-1e-05,-3e-05,-8e-05,-3e-05,-4e-05,-4e-05,-2e-05,0.0,1,11.0
1898,-1e-05,-3e-05,-8e-05,-3e-05,-4e-05,-4e-05,-2e-05,0.0,1,11.0
1899,-2e-05,0.0,-3e-05,-1e-05,-2e-05,-1e-05,1e-05,-2e-05,1,11.0
1900,1e-05,1e-05,1e-05,0.0,0.0,-1e-05,3e-05,-2e-05,1,11.0
1901,1e-05,1e-05,1e-05,0.0,0.0,-1e-05,3e-05,-2e-05,1,11.0
1902,1e-05,1e-05,1e-05,0.0,0.0,-1e-05,3e-05,-2e-05,1,11.0
1903,1e-05,1e-05,1e-05,0.0,0.0,-1e-05,3e-05,-2e-05,1,11.0
1904,1e-05,1e-05,1e-05,0.0,0.0,-1e-05,3e-05,-2e-05,1,11.0
1905,1e-05,1e-05,1e-05,0.0,0.0,-1e-05,3e-05,-2e-05,1,11.0
1906,1e-05,1e-05,1e-05,0.0,0.0,-1e-05,3e-05,-2e-05,1,11.0
1907,1e-05,1e-05,1e-05,0.0,0.0,-1e-05,3e-05,-2e-05,1,11.0
1908,1e-05,1e-05,1e-05,0.0,0.0,-1e-05,3e-05,-2e-05,1,11.0
1909,1e-05,1e-05,1e-05,0.0,0.0,-1e-05,3e-05,-2e-05,1,11.0
1910,1e-05,1e-05,1e-05,0.0,0.0,-1e-05,3e-05,-2e-05,1,11.0
1911,1e-05,1e-05,1e-05,0.0,0.0,-1e-05,3e-05,-2e-05,1,11.0
1912,1e-05,1e-05,1e-05,0.0,0.0,-1e-05,3e-05,-2e-05,1,11.0
1913,-1e-05,-1e-05,4e-05,-1e-05,-3e-05,-4e-05,-1e-05,-2e-05,1,11.0
1914,-1e-05,-1e-05,4e-05,-1e-05,-3e-05,-4e-05,-1e-05,-2e-05,1,11.0
1915,-1e-05,-1e-05,4e-05,-1e-05,-3e-05,-4e-05,-1e-05,-2e-05,1,11.0
1916,-1e-05,-1e-05,4e-05,-1e-05,-3e-05,-4e-05,-1e-05,-2e-05,1,11.0
1917,-1e-05,-1e-05,4e-05,-1e-05,-3e-05,-4e-05,-1e-05,-2e-05,1,11.0
1918,-1e-05,-1e-05,4e-05,-1e-05,-3e-05,-4e-05,-1e-05,-2e-05,1,11.0
1919,-1e-05,-1e-05,4e-05,-1e-05,-3e-05,-4e-05,-1e-05,-2e-05,1,11.0
1920,-1e-05,-1e-05,4e-05,-1e-05,-3e-05,-4e-05,-1e-05,-2e-05,1,11.0
1921,-1e-05,-1e-05,4e-05,-1e-05,-3e-05,-4e-05,-1e-05,-2e-05,1,11.0
1922,-4e-05,-3e-05,1e-05,-2e-05,0.0,-1e-05,-1e-05,-2e-05,1,11.0
1923,-4e-05,-3e-05,1e-05,-2e-05,0.0,-1e-05,-1e-05,-2e-05,1,11.0
1924,-4e-05,-3e-05,1e-05,-2e-05,0.0,-1e-05,-1e-05,-2e-05,1,11.0
1925,-4e-05,-3e-05,1e-05,-2e-05,0.0,-1e-05,-1e-05,-2e-05,1,11.0
1926,-4e-05,-3e-05,1e-05,-2e-05,0.0,-1e-05,-1e-05,-2e-05,1,11.0
1927,-4e-05,-3e-05,1e-05,-2e-05,0.0,-1e-05,-1e-05,-2e-05,1,11.0
1928,-4e-05,-3e-05,1e-05,-2e-05,0.0,-1e-05,-1e-05,-2e-05,1,11.0
1929,-4e-05,-3e-05,1e-05,-2e-05,0.0,-1e-05,-1e-05,-2e-05,1,11.0
1930,-4e-05,-3e-05,1e-05,-2e-05,0.0,-1e-05,-1e-05,-2e-05,1,11.0
1931,-4e-05,-3e-05,1e-05,-2e-05,0.0,-1e-05,-1e-05,-2e-05,1,11.0
1932,-4e-05,-3e-05,1e-05,-2e-05,0.0,-1e-05,-1e-05,-2e-05,1,11.0
1933,-4e-05,-3e-05,1e-05,-2e-05,0.0,-1e-05,-1e-05,-2e-05,1,11.0
1934,-4e-05,-3e-05,1e-05,-2e-05,0.0,-1e-05,-1e-05,-2e-05,1,11.0
1935,-4e-05,-3e-05,1e-05,-2e-05,0.0,-1e-05,-1e-05,-2e-05,1,11.0
1936,-4e-05,-3e-05,1e-05,-2e-05,0.0,-1e-05,-1e-05,-2e-05,1,11.0
1939,1e-05,-4e-05,-4e-05,-2e-05,-6e-05,-0.0001,-1e-05,-1e-05,1,11.0
1940,1e-05,-4e-05,-4e-05,-2e-05,-6e-05,-0.0001,-1e-05,-1e-05,1,11.0
1941,1e-05,-4e-05,-4e-05,-2e-05,-6e-05,-0.0001,-1e-05,-1e-05,1,11.0
1942,1e-05,-4e-05,-4e-05,-2e-05,-6e-05,-0.0001,-1e-05,-1e-05,1,11.0
1943,1e-05,-4e-05,-4e-05,-2e-05,-6e-05,-0.0001,-1e-05,-1e-05,1,11.0
1944,1e-05,-4e-05,-4e-05,-2e-05,-6e-05,-0.0001,-1e-05,-1e-05,1,11.0
1945,1e-05,-4e-05,-4e-05,-2e-05,-6e-05,-0.0001,-1e-05,-1e-05,1,11.0
1946,1e-05,-4e-05,-4e-05,-2e-05,-6e-05,-0.0001,-1e-05,-1e-05,1,11.0
1947,1e-05,-4e-05,-4e-05,-2e-05,-6e-05,-0.0001,-1e-05,-1e-05,1,11.0
1948,1e-05,-4e-05,-4e-05,-2e-05,-6e-05,-0.0001,-1e-05,-1e-05,1,11.0
1949,1e-05,-4e-05,-4e-05,-2e-05,-6e-05,-0.0001,-1e-05,-1e-05,1,11.0
1950,1e-05,-4e-05,-4e-05,-2e-05,-6e-05,-0.0001,-1e-05,-1e-05,1,11.0
1951,1e-05,-4e-05,-4e-05,-2e-05,-6e-05,-0.0001,-1e-05,-1e-05,1,11.0
1952,1e-05,-4e-05,-4e-05,-2e-05,-6e-05,-0.0001,-1e-05,-1e-05,1,11.0
1953,1e-05,-4e-05,-4e-05,-2e-05,-6e-05,-0.0001,-1e-05,-1e-05,1,11.0
1954,1e-05,-4e-05,-4e-05,-2e-05,-6e-05,-0.0001,-1e-05,-1e-05,1,11.0
1955,1e-05,-4e-05,-4e-05,-2e-05,-6e-05,-0.0001,-1e-05,-1e-05,1,11.0
1956,1e-05,-4e-05,-4e-05,-2e-05,-6e-05,-0.0001,-1e-05,-1e-05,1,11.0
1957,1e-05,-4e-05,-4e-05,-2e-05,-6e-05,-0.0001,-1e-05,-1e-05,1,11.0
1958,1e-05,-4e-05,-4e-05,-2e-05,-6e-05,-0.0001,-1e-05,-1e-05,1,11.0
1959,1e-05,-4e-05,-4e-05,-2e-05,-6e-05,-0.0001,-1e-05,-1e-05,1,11.0
1960,1e-05,-4e-05,-4e-05,-2e-05,-6e-05,-0.0001,-1e-05,-1e-05,1,11.0
1961,1e-05,-4e-05,-4e-05,-2e-05,-6e-05,-0.0001,-1e-05,-1e-05,1,11.0
1962,1e-05,-4e-05,-4e-05,-2e-05,-6e-05,-0.0001,-1e-05,-1e-05,1,11.0
1963,1e-05,-4e-05,-4e-05,-2e-05,-6e-05,-0.0001,-1e-05,-1e-05,1,11.0
1964,1e-05,-4e-05,-4e-05,-2e-05,-6e-05,-0.0001,-1e-05,-1e-05,1,11.0
1965,1e-05,-4e-05,-4e-05,-2e-05,-6e-05,-0.0001,-1e-05,-1e-05,1,11.0
1966,-1e-05,-1e-05,1e-05,-1e-05,-3e-05,-4e-05,-1e-05,-3e-05,1,11.0
1967,-1e-05,0.0,1e-05,-2e-05,-1e-05,1e-05,0.0,1e-05,1,11.0
1968,2e-05,1e-05,2e-05,0.0,1e-05,0.0,-2e-05,2e-05,1,11.0
1969,2e-05,1e-05,2e-05,0.0,1e-05,0.0,-2e-05,2e-05,1,11.0
1970,2e-05,1e-05,2e-05,0.0,1e-05,0.0,-2e-05,2e-05,1,11.0
1971,2e-05,1e-05,2e-05,0.0,1e-05,0.0,-2e-05,2e-05,1,11.0
1972,2e-05,1e-05,2e-05,0.0,1e-05,0.0,-2e-05,2e-05,1,11.0
1973,-1e-05,-2e-05,-1e-05,1e-05,-1e-05,-1e-05,0.0,-2e-05,1,11.0
1974,-1e-05,-2e-05,-1e-05,1e-05,-1e-05,-1e-05,0.0,-2e-05,1,11.0
1975,-1e-05,-2e-05,-1e-05,1e-05,-1e-05,-1e-05,0.0,-2e-05,1,11.0
1976,-1e-05,-2e-05,-1e-05,1e-05,-1e-05,-1e-05,0.0,-2e-05,1,11.0
1977,-1e-05,-2e-05,-1e-05,1e-05,-1e-05,-1e-05,0.0,-2e-05,1,11.0
1978,-1e-05,-2e-05,-1e-05,1e-05,-1e-05,-1e-05,0.0,-2e-05,1,11.0
1979,-1e-05,-2e-05,-1e-05,1e-05,-1e-05,-1e-05,0.0,-2e-05,1,11.0
1980,-1e-05,-2e-05,-1e-05,1e-05,-1e-05,-1e-05,0.0,-2e-05,1,11.0
1981,-1e-05,-2e-05,-1e-05,1e-05,-1e-05,-1e-05,0.0,-2e-05,1,11.0
1982,-1e-05,-2e-05,-1e-05,1e-05,-1e-05,-1e-05,0.0,-2e-05,1,11.0
1983,-1e-05,-2e-05,-1e-05,1e-05,-1e-05,-1e-05,0.0,-2e-05,1,11.0
1984,-1e-05,-2e-05,-1e-05,1e-05,-1e-05,-1e-05,0.0,-2e-05,1,11.0
1985,-1e-05,-2e-05,-1e-05,1e-05,-1e-05,-1e-05,0.0,-2e-05,1,11.0
1986,-1e-05,-2e-05,-1e-05,1e-05,-1e-05,-1e-05,0.0,-2e-05,1,11.0
1988,-1e-05,1e-05,0.0,0.0,1e-05,2e-05,-1e-05,-2e-05,1,11.0
1989,-1e-05,1e-05,0.0,0.0,1e-05,2e-05,-1e-05,-2e-05,1,11.0
1990,-1e-05,1e-05,0.0,0.0,1e-05,2e-05,-1e-05,-2e-05,1,11.0
1991,-1e-05,1e-05,0.0,0.0,1e-05,2e-05,-1e-05,-2e-05,1,11.0
1992,-1e-05,1e-05,0.0,0.0,1e-05,2e-05,-1e-05,-2e-05,1,11.0
1993,-1e-05,1e-05,0.0,0.0,1e-05,2e-05,-1e-05,-2e-05,1,11.0
1994,-1e-05,1e-05,0.0,0.0,1e-05,2e-05,-1e-05,-2e-05,1,11.0
1995,-1e-05,1e-05,0.0,0.0,1e-05,2e-05,-1e-05,-2e-05,1,11.0
1996,1e-05,-1e-05,-4e-05,-1e-05,-1e-05,0.0,0.0,-1e-05,1,11.0
1997,-2e-05,-2e-05,-1e-05,0.0,0.0,-1e-05,-2e-05,-2e-05,1,11.0
1998,-2e-05,-1e-05,-3e-05,-2e-05,-2e-05,0.0,-1e-05,-1e-05,1,11.0
1999,-2e-05,-1e-05,-3e-05,-2e-05,-2e-05,0.0,-1e-05,-1e-05,1,11.0
2000,-2e-05,-1e-05,-3e-05,-2e-05,-2e-05,0.0,-1e-05,-1e-05,1,11.0
2001,-2e-05,-1e-05,-3e-05,-2e-05,-2e-05,0.0,-1e-05,-1e-05,1,11.0
2002,-2e-05,-1e-05,-3e-05,-2e-05,-2e-05,0.0,-1e-05,-1e-05,1,11.0
2003,-2e-05,-1e-05,-3e-05,-2e-05,-2e-05,0.0,-1e-05,-1e-05,1,11.0
2004,-2e-05,-1e-05,-3e-05,-2e-05,-2e-05,0.0,-1e-05,-1e-05,1,11.0
2005,-2e-05,-1e-05,-3e-05,-2e-05,-2e-05,0.0,-1e-05,-1e-05,1,11.0
2006,-2e-05,-1e-05,-3e-05,-2e-05,-2e-05,0.0,-1e-05,-1e-05,1,11.0
2007,-2e-05,-1e-05,-3e-05,-2e-05,-2e-05,0.0,-1e-05,-1e-05,1,11.0
2008,-2e-05,-1e-05,-3e-05,-2e-05,-2e-05,0.0,-1e-05,-1e-05,1,11.0
2009,-2e-05,-1e-05,-3e-05,-2e-05,-2e-05,0.0,-1e-05,-1e-05,1,11.0
2010,-2e-05,-1e-05,-3e-05,-2e-05,-2e-05,0.0,-1e-05,-1e-05,1,11.0
2011,-2e-05,-1e-05,-3e-05,-2e-05,-2e-05,0.0,-1e-05,-1e-05,1,11.0
2012,-2e-05,-1e-05,-3e-05,-2e-05,-2e-05,0.0,-1e-05,-1e-05,1,11.0
2013,-2e-05,-1e-05,-3e-05,-2e-05,-2e-05,0.0,-1e-05,-1e-05,1,11.0
2014,-2e-05,-1e-05,-3e-05,-2e-05,-2e-05,0.0,-1e-05,-1e-05,1,11.0
2015,-2e-05,-1e-05,-3e-05,-2e-05,-2e-05,0.0,-1e-05,-1e-05,1,11.0
2016,-2e-05,-1e-05,-3e-05,-2e-05,-2e-05,0.0,-1e-05,-1e-05,1,11.0
2017,-2e-05,-1e-05,-3e-05,-2e-05,-2e-05,0.0,-1e-05,-1e-05,1,11.0
2018,-2e-05,-1e-05,-3e-05,-2e-05,-2e-05,0.0,-1e-05,-1e-05,1,11.0
2019,0.0,0.0,0.0,-1e-05,0.0,-2e-05,-4e-05,-1e-05,1,11.0
2020,0.0,0.0,0.0,-1e-05,0.0,-2e-05,-4e-05,-1e-05,1,11.0
2021,0.0,0.0,0.0,-1e-05,0.0,-2e-05,-4e-05,-1e-05,1,11.0
2022,-2e-05,-1e-05,0.0,0.0,-3e-05,1e-05,-1e-05,0.0,1,11.0
2023,-2e-05,-1e-05,0.0,0.0,-3e-05,1e-05,-1e-05,0.0,1,11.0
2024,-2e-05,-1e-05,0.0,0.0,-3e-05,1e-05,-1e-05,0.0,1,11.0
2025,-2e-05,-1e-05,0.0,0.0,-3e-05,1e-05,-1e-05,0.0,1,11.0
2026,-2e-05,-1e-05,0.0,0.0,-3e-05,1e-05,-1e-05,0.0,1,11.0
2027,-2e-05,-1e-05,0.0,0.0,-3e-05,1e-05,-1e-05,0.0,1,11.0
2028,-2e-05,-1e-05,0.0,0.0,-3e-05,1e-05,-1e-05,0.0,1,11.0
2029,-2e-05,-1e-05,0.0,0.0,-3e-05,1e-05,-1e-05,0.0,1,11.0
2030,-2e-05,-1e-05,0.0,0.0,-3e-05,1e-05,-1e-05,0.0,1,11.0
2031,-2e-05,-1e-05,0.0,0.0,-3e-05,1e-05,-1e-05,0.0,1,11.0
2032,-2e-05,-1e-05,0.0,0.0,-3e-05,1e-05,-1e-05,0.0,1,11.0
2033,2e-05,0.0,-2e-05,-2e-05,-1e-05,0.0,-1e-05,-3e-05,1,11.0
2034,2e-05,0.0,-2e-05,-2e-05,-1e-05,0.0,-1e-05,-3e-05,1,11.0
2035,2e-05,0.0,-2e-05,-2e-05,-1e-05,0.0,-1e-05,-3e-05,1,11.0
2036,2e-05,0.0,-2e-05,-2e-05,-1e-05,0.0,-1e-05,-3e-05,1,11.0
2038,2e-05,0.0,-2e-05,-2e-05,-1e-05,0.0,-1e-05,-3e-05,1,11.0
2039,2e-05,0.0,-2e-05,-2e-05,-1e-05,0.0,-1e-05,-3e-05,1,11.0
2040,2e-05,0.0,-2e-05,-2e-05,-1e-05,0.0,-1e-05,-3e-05,1,11.0
2041,-1e-05,0.0,1e-05,-1e-05,0.0,3e-05,-2e-05,0.0,1,11.0
2042,0.0,3e-05,-1e-05,-1e-05,1e-05,-1e-05,-3e-05,-3e-05,1,11.0
2043,0.0,3e-05,-1e-05,-1e-05,1e-05,-1e-05,-3e-05,-3e-05,1,11.0
2044,0.0,3e-05,-1e-05,-1e-05,1e-05,-1e-05,-3e-05,-3e-05,1,11.0
2045,0.0,3e-05,-1e-05,-1e-05,1e-05,-1e-05,-3e-05,-3e-05,1,11.0
2046,0.0,3e-05,-1e-05,-1e-05,1e-05,-1e-05,-3e-05,-3e-05,1,11.0
2047,0.0,3e-05,-1e-05,-1e-05,1e-05,-1e-05,-3e-05,-3e-05,1,11.0
2048,0.0,3e-05,-1e-05,-1e-05,1e-05,-1e-05,-3e-05,-3e-05,1,11.0
2049,0.0,3e-05,-1e-05,-1e-05,1e-05,-1e-05,-3e-05,-3e-05,1,11.0
2050,0.0,3e-05,-1e-05,-1e-05,1e-05,-1e-05,-3e-05,-3e-05,1,11.0
2051,0.0,3e-05,-1e-05,-1e-05,1e-05,-1e-05,-3e-05,-3e-05,1,11.0
2052,0.0,3e-05,-1e-05,-1e-05,1e-05,-1e-05,-3e-05,-3e-05,1,11.0
2053,0.0,3e-05,-1e-05,-1e-05,1e-05,-1e-05,-3e-05,-3e-05,1,11.0
2054,0.0,3e-05,-1e-05,-1e-05,1e-05,-1e-05,-3e-05,-3e-05,1,11.0
2055,0.0,3e-05,-1e-05,-1e-05,1e-05,-1e-05,-3e-05,-3e-05,1,11.0
2056,0.0,3e-05,-1e-05,-1e-05,1e-05,-1e-05,-3e-05,-3e-05,1,11.0
2057,-1e-05,-2e-05,-3e-05,0.0,-2e-05,0.0,1e-05,3e-05,1,11.0
2058,-2e-05,-2e-05,-2e-05,0.0,0.0,-1e-05,1e-05,-2e-05,1,11.0
2059,0.0,-3e-05,-1e-05,1e-05,0.0,1e-05,-2e-05,-3e-05,1,11.0
2060,0.0,-3e-05,-1e-05,1e-05,0.0,1e-05,-2e-05,-3e-05,1,11.0
2061,0.0,-3e-05,-1e-05,1e-05,0.0,1e-05,-2e-05,-3e-05,1,11.0
2062,0.0,-3e-05,-1e-05,1e-05,0.0,1e-05,-2e-05,-3e-05,1,11.0
2063,0.0,-3e-05,-1e-05,1e-05,0.0,1e-05,-2e-05,-3e-05,1,11.0
2064,0.0,-3e-05,-1e-05,1e-05,0.0,1e-05,-2e-05,-3e-05,1,11.0
2065,0.0,-3e-05,-1e-05,1e-05,0.0,1e-05,-2e-05,-3e-05,1,11.0
2066,0.0,-3e-05,-1e-05,1e-05,0.0,1e-05,-2e-05,-3e-05,1,11.0
2067,0.0,-3e-05,-1e-05,1e-05,0.0,1e-05,-2e-05,-3e-05,1,11.0
2068,0.0,-3e-05,-1e-05,1e-05,0.0,1e-05,-2e-05,-3e-05,1,11.0
2069,0.0,-3e-05,-1e-05,1e-05,0.0,1e-05,-2e-05,-3e-05,1,11.0
2070,0.0,-3e-05,-1e-05,1e-05,0.0,1e-05,-2e-05,-3e-05,1,11.0
2071,0.0,-3e-05,-1e-05,1e-05,0.0,1e-05,-2e-05,-3e-05,1,11.0
2072,0.0,-3e-05,-1e-05,1e-05,0.0,1e-05,-2e-05,-3e-05,1,11.0
2073,0.0,-3e-05,-1e-05,1e-05,0.0,1e-05,-2e-05,-3e-05,1,11.0
2074,0.0,-3e-05,-1e-05,1e-05,0.0,1e-05,-2e-05,-3e-05,1,11.0
2075,0.0,-3e-05,-1e-05,1e-05,0.0,1e-05,-2e-05,-3e-05,1,11.0
2076,0.0,-3e-05,-1e-05,1e-05,0.0,1e-05,-2e-05,-3e-05,1,11.0
2077,0.0,-3e-05,-1e-05,1e-05,0.0,1e-05,-2e-05,-3e-05,1,11.0
2078,0.0,-3e-05,-1e-05,1e-05,0.0,1e-05,-2e-05,-3e-05,1,11.0
2079,0.0,-3e-05,-1e-05,1e-05,0.0,1e-05,-2e-05,-3e-05,1,11.0
2080,0.0,-3e-05,-1e-05,1e-05,0.0,1e-05,-2e-05,-3e-05,1,11.0
2081,0.0,-3e-05,-1e-05,1e-05,0.0,1e-05,-2e-05,-3e-05,1,11.0
2082,0.0,-3e-05,-1e-05,1e-05,0.0,1e-05,-2e-05,-3e-05,1,11.0
2083,0.0,-3e-05,-1e-05,1e-05,0.0,1e-05,-2e-05,-3e-05,1,11.0
2084,0.0,-3e-05,-1e-05,1e-05,0.0,1e-05,-2e-05,-3e-05,1,11.0
2085,0.0,-3e-05,-1e-05,1e-05,0.0,1e-05,-2e-05,-3e-05,1,11.0
2086,0.0,-3e-05,-1e-05,1e-05,0.0,1e-05,-2e-05,-3e-05,1,11.0
2089,2e-05,1e-05,2e-05,0.0,-1e-05,0.0,-2e-05,-1e-05,1,11.0
2090,2e-05,1e-05,2e-05,0.0,-1e-05,0.0,-2e-05,-1e-05,1,11.0
2091,2e-05,1e-05,2e-05,0.0,-1e-05,0.0,-2e-05,-1e-05,1,11.0
2092,2e-05,1e-05,2e-05,0.0,-1e-05,0.0,-2e-05,-1e-05,1,11.0
2093,2e-05,1e-05,2e-05,0.0,-1e-05,0.0,-2e-05,-1e-05,1,11.0
2094,2e-05,1e-05,2e-05,0.0,-1e-05,0.0,-2e-05,-1e-05,1,11.0
2095,2e-05,1e-05,2e-05,0.0,-1e-05,0.0,-2e-05,-1e-05,1,11.0
2096,2e-05,1e-05,2e-05,0.0,-1e-05,0.0,-2e-05,-1e-05,1,11.0
2097,2e-05,1e-05,2e-05,0.0,-1e-05,0.0,-2e-05,-1e-05,1,11.0
2098,2e-05,1e-05,2e-05,0.0,-1e-05,0.0,-2e-05,-1e-05,1,11.0
2099,2e-05,1e-05,2e-05,0.0,-1e-05,0.0,-2e-05,-1e-05,1,11.0
2100,2e-05,1e-05,2e-05,0.0,-1e-05,0.0,-2e-05,-1e-05,1,11.0
2101,2e-05,1e-05,2e-05,0.0,-1e-05,0.0,-2e-05,-1e-05,1,11.0
2102,-3e-05,-4e-05,-2e-05,-1e-05,-3e-05,0.0,-3e-05,-2e-05,1,11.0
2103,-1e-05,-3e-05,0.0,-2e-05,0.0,1e-05,-1e-05,1e-05,1,11.0
2104,-1e-05,-3e-05,0.0,-2e-05,0.0,1e-05,-1e-05,1e-05,1,11.0
2105,-1e-05,-3e-05,0.0,-2e-05,0.0,1e-05,-1e-05,1e-05,1,11.0
2106,-1e-05,-3e-05,0.0,-2e-05,0.0,1e-05,-1e-05,1e-05,1,11.0
2107,-1e-05,-3e-05,0.0,-2e-05,0.0,1e-05,-1e-05,1e-05,1,11.0
2108,-1e-05,-3e-05,0.0,-2e-05,0.0,1e-05,-1e-05,1e-05,1,11.0
2109,-1e-05,-3e-05,0.0,-2e-05,0.0,1e-05,-1e-05,1e-05,1,11.0
2110,-1e-05,-3e-05,0.0,-2e-05,0.0,1e-05,-1e-05,1e-05,1,11.0
2111,-1e-05,-3e-05,0.0,-2e-05,0.0,1e-05,-1e-05,1e-05,1,11.0
2112,-1e-05,-3e-05,0.0,-2e-05,0.0,1e-05,-1e-05,1e-05,1,11.0
2113,-1e-05,-3e-05,0.0,-2e-05,0.0,1e-05,-1e-05,1e-05,1,11.0
2114,-1e-05,-3e-05,0.0,-2e-05,0.0,1e-05,-1e-05,1e-05,1,11.0
2115,-1e-05,-3e-05,0.0,-2e-05,0.0,1e-05,-1e-05,1e-05,1,11.0
2116,-1e-05,-1e-05,0.0,1e-05,0.0,2e-05,0.0,-4e-05,1,11.0
2117,-3e-05,0.0,1e-05,-2e-05,-3e-05,-1e-05,2e-05,0.0,1,11.0
2118,-2e-05,-2e-05,-3e-05,-2e-05,-2e-05,-2e-05,0.0,-1e-05,1,11.0
2119,-2e-05,-2e-05,-3e-05,-2e-05,-2e-05,-2e-05,0.0,-1e-05,1,11.0
2120,-2e-05,-2e-05,-3e-05,-2e-05,-2e-05,-2e-05,0.0,-1e-05,1,11.0
2121,-2e-05,-2e-05,-3e-05,-2e-05,-2e-05,-2e-05,0.0,-1e-05,1,11.0
2122,-2e-05,-2e-05,-3e-05,-2e-05,-2e-05,-2e-05,0.0,-1e-05,1,11.0
2123,-2e-05,-2e-05,-3e-05,-2e-05,-2e-05,-2e-05,0.0,-1e-05,1,11.0
2124,-2e-05,-2e-05,-3e-05,-2e-05,-2e-05,-2e-05,0.0,-1e-05,1,11.0
2125,-2e-05,-2e-05,-3e-05,-2e-05,-2e-05,-2e-05,0.0,-1e-05,1,11.0
2126,-2e-05,-2e-05,-3e-05,-2e-05,-2e-05,-2e-05,0.0,-1e-05,1,11.0
2127,-2e-05,-2e-05,-3e-05,-2e-05,-2e-05,-2e-05,0.0,-1e-05,1,11.0
2128,-2e-05,-2e-05,-3e-05,-2e-05,-2e-05,-2e-05,0.0,-1e-05,1,11.0
2129,-2e-05,-2e-05,-3e-05,-2e-05,-2e-05,-2e-05,0.0,-1e-05,1,11.0
2130,-2e-05,-2e-05,-3e-05,-2e-05,-2e-05,-2e-05,0.0,-1e-05,1,11.0
2131,-2e-05,-2e-05,-3e-05,-2e-05,-2e-05,-2e-05,0.0,-1e-05,1,11.0
2132,-2e-05,-2e-05,-3e-05,-2e-05,-2e-05,-2e-05,0.0,-1e-05,1,11.0
2133,-2e-05,-2e-05,-3e-05,-2e-05,-2e-05,-2e-05,0.0,-1e-05,1,11.0
2134,-2e-05,-2e-05,-3e-05,-2e-05,-2e-05,-2e-05,0.0,-1e-05,1,11.0
2135,-2e-05,-2e-05,-3e-05,-2e-05,-2e-05,-2e-05,0.0,-1e-05,1,11.0
2136,-2e-05,-2e-05,-3e-05,-2e-05,-2e-05,-2e-05,0.0,-1e-05,1,11.0
2139,-2e-05,-2e-05,-3e-05,-2e-05,-2e-05,-2e-05,0.0,-1e-05,1,11.0
2140,-2e-05,-2e-05,-3e-05,-2e-05,-2e-05,-2e-05,0.0,-1e-05,1,11.0
2141,-2e-05,-2e-05,-3e-05,-2e-05,-2e-05,-2e-05,0.0,-1e-05,1,11.0
2142,-2e-05,-2e-05,-3e-05,-2e-05,-2e-05,-2e-05,0.0,-1e-05,1,11.0
2143,-2e-05,-2e-05,-3e-05,-2e-05,-2e-05,-2e-05,0.0,-1e-05,1,11.0
2144,-2e-05,-2e-05,-3e-05,-2e-05,-2e-05,-2e-05,0.0,-1e-05,1,11.0
2145,-2e-05,-2e-05,-3e-05,-2e-05,-2e-05,-2e-05,0.0,-1e-05,1,11.0
2146,-2e-05,-2e-05,-3e-05,-2e-05,-2e-05,-2e-05,0.0,-1e-05,1,11.0
2147,-2e-05,-2e-05,-3e-05,-2e-05,-2e-05,-2e-05,0.0,-1e-05,1,11.0
2148,-2e-05,-2e-05,-3e-05,-2e-05,-2e-05,-2e-05,0.0,-1e-05,1,11.0
2149,-2e-05,-2e-05,-3e-05,-2e-05,-2e-05,-2e-05,0.0,-1e-05,1,11.0
2150,-2e-05,-2e-05,-3e-05,-2e-05,-2e-05,-2e-05,0.0,-1e-05,1,11.0
2151,-2e-05,-2e-05,-3e-05,-2e-05,-2e-05,-2e-05,0.0,-1e-05,1,11.0
2152,-2e-05,-2e-05,-3e-05,-2e-05,-2e-05,-2e-05,0.0,-1e-05,1,11.0
2153,-2e-05,-2e-05,-3e-05,-2e-05,-2e-05,-2e-05,0.0,-1e-05,1,11.0
2154,-2e-05,-2e-05,-3e-05,-2e-05,-2e-05,-2e-05,0.0,-1e-05,1,11.0
2155,-2e-05,-1e-05,2e-05,1e-05,1e-05,-2e-05,4e-05,-3e-05,1,11.0
2156,-1e-05,1e-05,1e-05,-1e-05,1e-05,1e-05,0.0,1e-05,1,11.0
2157,-1e-05,1e-05,1e-05,-1e-05,1e-05,1e-05,0.0,1e-05,1,11.0
2158,-1e-05,1e-05,1e-05,-1e-05,1e-05,1e-05,0.0,1e-05,1,11.0
2159,-1e-05,1e-05,1e-05,-1e-05,1e-05,1e-05,0.0,1e-05,1,11.0
2160,-1e-05,1e-05,1e-05,-1e-05,1e-05,1e-05,0.0,1e-05,1,11.0
2161,-2e-05,0.0,-2e-05,0.0,0.0,1e-05,0.0,-1e-05,1,11.0
2162,-1e-05,-1e-05,-3e-05,-2e-05,0.0,-1e-05,-3e-05,-2e-05,1,11.0
2163,0.0,-3e-05,-2e-05,0.0,0.0,0.0,-1e-05,-3e-05,1,11.0
2164,0.0,-3e-05,-2e-05,0.0,0.0,0.0,-1e-05,-3e-05,1,11.0
2165,0.0,-3e-05,-2e-05,0.0,0.0,0.0,-1e-05,-3e-05,1,11.0
2166,0.0,-3e-05,-2e-05,0.0,0.0,0.0,-1e-05,-3e-05,1,11.0
2167,0.0,-3e-05,-2e-05,0.0,0.0,0.0,-1e-05,-3e-05,1,11.0
2168,0.0,-3e-05,-2e-05,0.0,0.0,0.0,-1e-05,-3e-05,1,11.0
2169,0.0,-3e-05,-2e-05,0.0,0.0,0.0,-1e-05,-3e-05,1,11.0
2170,0.0,-3e-05,-2e-05,0.0,0.0,0.0,-1e-05,-3e-05,1,11.0
2171,0.0,-3e-05,-2e-05,0.0,0.0,0.0,-1e-05,-3e-05,1,11.0
2172,0.0,-3e-05,-2e-05,0.0,0.0,0.0,-1e-05,-3e-05,1,11.0
2173,0.0,-3e-05,-2e-05,0.0,0.0,0.0,-1e-05,-3e-05,1,11.0
2174,0.0,-3e-05,-2e-05,0.0,0.0,0.0,-1e-05,-3e-05,1,11.0
2175,0.0,-3e-05,-2e-05,0.0,0.0,0.0,-1e-05,-3e-05,1,11.0
2176,-3e-05,-1e-05,-5e-05,-2e-05,-1e-05,-1e-05,-3e-05,0.0,1,11.0
2177,-3e-05,-1e-05,-5e-05,-2e-05,-1e-05,-1e-05,-3e-05,0.0,1,11.0
2178,0.0,-1e-05,3e-05,1e-05,-2e-05,-2e-05,0.0,-2e-05,1,11.0
2179,0.0,-1e-05,3e-05,1e-05,-2e-05,-2e-05,0.0,-2e-05,1,11.0
2180,0.0,-1e-05,3e-05,1e-05,-2e-05,-2e-05,0.0,-2e-05,1,11.0
2181,0.0,-1e-05,3e-05,1e-05,-2e-05,-2e-05,0.0,-2e-05,1,11.0
2182,0.0,-1e-05,3e-05,1e-05,-2e-05,-2e-05,0.0,-2e-05,1,11.0
2183,0.0,-1e-05,3e-05,1e-05,-2e-05,-2e-05,0.0,-2e-05,1,11.0
2184,0.0,-1e-05,3e-05,1e-05,-2e-05,-2e-05,0.0,-2e-05,1,11.0
2185,0.0,-1e-05,3e-05,1e-05,-2e-05,-2e-05,0.0,-2e-05,1,11.0
2186,0.0,-1e-05,3e-05,1e-05,-2e-05,-2e-05,0.0,-2e-05,1,11.0
2189,0.0,-1e-05,3e-05,1e-05,-2e-05,-2e-05,0.0,-2e-05,1,11.0
2190,0.0,-1e-05,3e-05,1e-05,-2e-05,-2e-05,0.0,-2e-05,1,11.0
2191,0.0,-1e-05,3e-05,1e-05,-2e-05,-2e-05,0.0,-2e-05,1,11.0
2192,0.0,-1e-05,3e-05,1e-05,-2e-05,-2e-05,0.0,-2e-05,1,11.0
2193,0.0,-1e-05,3e-05,1e-05,-2e-05,-2e-05,0.0,-2e-05,1,11.0
2194,0.0,-1e-05,3e-05,1e-05,-2e-05,-2e-05,0.0,-2e-05,1,11.0
2195,0.0,-1e-05,3e-05,1e-05,-2e-05,-2e-05,0.0,-2e-05,1,11.0
2196,0.0,-1e-05,3e-05,1e-05,-2e-05,-2e-05,0.0,-2e-05,1,11.0
2197,0.0,-1e-05,3e-05,1e-05,-2e-05,-2e-05,0.0,-2e-05,1,11.0
2198,0.0,-1e-05,3e-05,1e-05,-2e-05,-2e-05,0.0,-2e-05,1,11.0
2199,-3e-05,-1e-05,-3e-05,-4e-05,0.0,4e-05,2e-05,1e-05,1,11.0
2200,0.0,-2e-05,-1e-05,-1e-05,-2e-05,0.0,-2e-05,0.0,1,11.0
2201,-3e-05,-1e-05,-2e-05,0.0,0.0,-2e-05,-5e-05,0.0,1,11.0
2202,-3e-05,-1e-05,-2e-05,0.0,0.0,-2e-05,-5e-05,0.0,1,11.0
2203,-3e-05,-1e-05,-2e-05,0.0,0.0,-2e-05,-5e-05,0.0,1,11.0
2204,-3e-05,-1e-05,-2e-05,0.0,0.0,-2e-05,-5e-05,0.0,1,11.0
2205,-3e-05,-1e-05,-2e-05,0.0,0.0,-2e-05,-5e-05,0.0,1,11.0
2206,-3e-05,-1e-05,-2e-05,0.0,0.0,-2e-05,-5e-05,0.0,1,11.0
2207,-3e-05,-1e-05,-2e-05,0.0,0.0,-2e-05,-5e-05,0.0,1,11.0
2208,-3e-05,-1e-05,-2e-05,0.0,0.0,-2e-05,-5e-05,0.0,1,11.0
2209,-3e-05,-1e-05,-2e-05,0.0,0.0,-2e-05,-5e-05,0.0,1,11.0
2210,-3e-05,-1e-05,-2e-05,0.0,0.0,-2e-05,-5e-05,0.0,1,11.0
2211,-3e-05,-1e-05,-2e-05,0.0,0.0,-2e-05,-5e-05,0.0,1,11.0
2212,-3e-05,-1e-05,-2e-05,0.0,0.0,-2e-05,-5e-05,0.0,1,11.0
2213,-3e-05,-1e-05,-2e-05,0.0,0.0,-2e-05,-5e-05,0.0,1,11.0
2214,-3e-05,-1e-05,-2e-05,0.0,0.0,-2e-05,-5e-05,0.0,1,11.0
2215,-3e-05,-1e-05,-2e-05,0.0,0.0,-2e-05,-5e-05,0.0,1,11.0
2216,-3e-05,-1e-05,-2e-05,0.0,0.0,-2e-05,-5e-05,0.0,1,11.0
2217,-3e-05,-1e-05,-2e-05,0.0,0.0,-2e-05,-5e-05,0.0,1,11.0
2218,-3e-05,-1e-05,-2e-05,0.0,0.0,-2e-05,-5e-05,0.0,1,11.0
2219,-3e-05,-1e-05,-2e-05,0.0,0.0,-2e-05,-5e-05,0.0,1,11.0
2220,-3e-05,-1e-05,-2e-05,0.0,0.0,-2e-05,-5e-05,0.0,1,11.0
2221,-3e-05,-2e-05,2e-05,1e-05,-3e-05,2e-05,-1e-05,-4e-05,1,11.0
2223,-2e-05,-1e-05,-3e-05,-2e-05,-1e-05,1e-05,1e-05,-1e-05,1,11.0
2224,1e-05,-1e-05,-2e-05,-1e-05,2e-05,-1e-05,-1e-05,-1e-05,1,11.0
2225,1e-05,-1e-05,-2e-05,-1e-05,2e-05,-1e-05,-1e-05,-1e-05,1,11.0
2226,1e-05,-1e-05,-2e-05,-1e-05,2e-05,-1e-05,-1e-05,-1e-05,1,11.0
2227,1e-05,-1e-05,-2e-05,-1e-05,2e-05,-1e-05,-1e-05,-1e-05,1,11.0
2228,1e-05,-1e-05,-2e-05,-1e-05,2e-05,-1e-05,-1e-05,-1e-05,1,11.0
2229,1e-05,-1e-05,-2e-05,-1e-05,2e-05,-1e-05,-1e-05,-1e-05,1,11.0
2230,1e-05,-1e-05,-2e-05,-1e-05,2e-05,-1e-05,-1e-05,-1e-05,1,11.0
2231,1e-05,-1e-05,-2e-05,-1e-05,2e-05,-1e-05,-1e-05,-1e-05,1,11.0
2232,1e-05,-1e-05,-2e-05,-1e-05,2e-05,-1e-05,-1e-05,-1e-05,1,11.0
2233,1e-05,-1e-05,-2e-05,-1e-05,2e-05,-1e-05,-1e-05,-1e-05,1,11.0
2234,1e-05,-1e-05,-2e-05,-1e-05,2e-05,-1e-05,-1e-05,-1e-05,1,11.0
2235,1e-05,-1e-05,-2e-05,-1e-05,2e-05,-1e-05,-1e-05,-1e-05,1,11.0
2236,1e-05,-1e-05,-2e-05,-1e-05,2e-05,-1e-05,-1e-05,-1e-05,1,11.0
2239,1e-05,-1e-05,-2e-05,-1e-05,2e-05,-1e-05,-1e-05,-1e-05,1,11.0
2240,1e-05,-1e-05,-2e-05,-1e-05,2e-05,-1e-05,-1e-05,-1e-05,1,11.0
2241,1e-05,-1e-05,-2e-05,-1e-05,2e-05,-1e-05,-1e-05,-1e-05,1,11.0
2242,1e-05,-1e-05,-2e-05,-1e-05,2e-05,-1e-05,-1e-05,-1e-05,1,11.0
2243,1e-05,-1e-05,-2e-05,-1e-05,2e-05,-1e-05,-1e-05,-1e-05,1,11.0
2244,-2e-05,-2e-05,-4e-05,0.0,-2e-05,-1e-05,-1e-05,1e-05,1,11.0
2245,-2e-05,0.0,-2e-05,1e-05,-1e-05,-1e-05,-1e-05,0.0,1,11.0
2246,-2e-05,0.0,-2e-05,1e-05,-1e-05,-1e-05,-1e-05,0.0,1,11.0
2247,-2e-05,0.0,-2e-05,1e-05,-1e-05,-1e-05,-1e-05,0.0,1,11.0
2248,-2e-05,0.0,-2e-05,1e-05,-1e-05,-1e-05,-1e-05,0.0,1,11.0
2249,-2e-05,0.0,-2e-05,1e-05,-1e-05,-1e-05,-1e-05,0.0,1,11.0
2250,-2e-05,0.0,-2e-05,1e-05,-1e-05,-1e-05,-1e-05,0.0,1,11.0
2251,-2e-05,0.0,-2e-05,1e-05,-1e-05,-1e-05,-1e-05,0.0,1,11.0
2252,-2e-05,0.0,-2e-05,1e-05,-1e-05,-1e-05,-1e-05,0.0,1,11.0
2253,-2e-05,0.0,-2e-05,1e-05,-1e-05,-1e-05,-1e-05,0.0,1,11.0
2254,-2e-05,0.0,-2e-05,1e-05,-1e-05,-1e-05,-1e-05,0.0,1,11.0
2255,-2e-05,0.0,-2e-05,1e-05,-1e-05,-1e-05,-1e-05,0.0,1,11.0
2256,-2e-05,0.0,-2e-05,1e-05,-1e-05,-1e-05,-1e-05,0.0,1,11.0
2257,-2e-05,0.0,-2e-05,1e-05,-1e-05,-1e-05,-1e-05,0.0,1,11.0
2258,-2e-05,0.0,-2e-05,1e-05,-1e-05,-1e-05,-1e-05,0.0,1,11.0
2259,-2e-05,0.0,-2e-05,1e-05,-1e-05,-1e-05,-1e-05,0.0,1,11.0
2260,-2e-05,0.0,-2e-05,1e-05,-1e-05,-1e-05,-1e-05,0.0,1,11.0
2261,-2e-05,0.0,-2e-05,1e-05,-1e-05,-1e-05,-1e-05,0.0,1,11.0
2262,-2e-05,0.0,-2e-05,1e-05,-1e-05,-1e-05,-1e-05,0.0,1,11.0
2263,-2e-05,0.0,-2e-05,1e-05,-1e-05,-1e-05,-1e-05,0.0,1,11.0
2264,-2e-05,0.0,-2e-05,1e-05,-1e-05,-1e-05,-1e-05,0.0,1,11.0
2265,-2e-05,0.0,-2e-05,1e-05,-1e-05,-1e-05,-1e-05,0.0,1,11.0
2266,0.0,-6e-05,-4e-05,-2e-05,0.0,0.0,-2e-05,0.0,1,11.0
2267,-1e-05,0.0,0.0,-1e-05,1e-05,-1e-05,-3e-05,-3e-05,1,11.0
2268,-3e-05,-3e-05,0.0,-2e-05,0.0,-1e-05,1e-05,2e-05,1,11.0
2269,-3e-05,-3e-05,0.0,-2e-05,0.0,-1e-05,1e-05,2e-05,1,11.0
2270,-3e-05,-3e-05,0.0,-2e-05,0.0,-1e-05,1e-05,2e-05,1,11.0
2271,-3e-05,-3e-05,0.0,-2e-05,0.0,-1e-05,1e-05,2e-05,1,11.0
2272,-3e-05,-3e-05,0.0,-2e-05,0.0,-1e-05,1e-05,2e-05,1,11.0
2273,-3e-05,-3e-05,0.0,-2e-05,0.0,-1e-05,1e-05,2e-05,1,11.0
2274,-3e-05,-3e-05,0.0,-2e-05,0.0,-1e-05,1e-05,2e-05,1,11.0
2275,-3e-05,-3e-05,0.0,-2e-05,0.0,-1e-05,1e-05,2e-05,1,11.0
2276,-3e-05,-3e-05,0.0,-2e-05,0.0,-1e-05,1e-05,2e-05,1,11.0
2277,-3e-05,-3e-05,0.0,-2e-05,0.0,-1e-05,1e-05,2e-05,1,11.0
2278,-3e-05,-3e-05,0.0,-2e-05,0.0,-1e-05,1e-05,2e-05,1,11.0
2279,-3e-05,-3e-05,0.0,-2e-05,0.0,-1e-05,1e-05,2e-05,1,11.0
2280,-3e-05,-3e-05,0.0,-2e-05,0.0,-1e-05,1e-05,2e-05,1,11.0
2281,-3e-05,-3e-05,0.0,-2e-05,0.0,-1e-05,1e-05,2e-05,1,11.0
2282,-3e-05,-3e-05,0.0,-2e-05,0.0,-1e-05,1e-05,2e-05,1,11.0
2283,-3e-05,-3e-05,0.0,-2e-05,0.0,-1e-05,1e-05,2e-05,1,11.0
2284,-3e-05,-3e-05,0.0,-2e-05,0.0,-1e-05,1e-05,2e-05,1,11.0
2285,-3e-05,-3e-05,0.0,-2e-05,0.0,-1e-05,1e-05,2e-05,1,11.0
2286,-3e-05,-3e-05,0.0,-2e-05,0.0,-1e-05,1e-05,2e-05,1,11.0
2289,-1e-05,-4e-05,-2e-05,1e-05,-1e-05,-1e-05,-1e-05,-2e-05,1,11.0
2290,0.0,-2e-05,0.0,0.0,1e-05,7e-05,1e-05,-1e-05,1,11.0
2291,-2e-05,-1e-05,1e-05,1e-05,-1e-05,-1e-05,-1e-05,-1e-05,1,11.0
2292,-2e-05,-1e-05,1e-05,1e-05,-1e-05,-1e-05,-1e-05,-1e-05,1,11.0
2293,-2e-05,-1e-05,1e-05,1e-05,-1e-05,-1e-05,-1e-05,-1e-05,1,11.0
2294,-2e-05,-1e-05,1e-05,1e-05,-1e-05,-1e-05,-1e-05,-1e-05,1,11.0
2295,-2e-05,-1e-05,1e-05,1e-05,-1e-05,-1e-05,-1e-05,-1e-05,1,11.0
2296,-1e-05,-2e-05,0.0,-2e-05,1e-05,-1e-05,-2e-05,-1e-05,1,11.0
2297,-1e-05,-2e-05,0.0,-2e-05,1e-05,-1e-05,-2e-05,-1e-05,1,11.0
2298,-1e-05,-2e-05,0.0,-2e-05,1e-05,-1e-05,-2e-05,-1e-05,1,11.0
2299,-1e-05,-2e-05,0.0,-2e-05,1e-05,-1e-05,-2e-05,-1e-05,1,11.0
2300,-1e-05,-2e-05,0.0,-2e-05,1e-05,-1e-05,-2e-05,-1e-05,1,11.0
2301,-1e-05,-2e-05,0.0,-2e-05,1e-05,-1e-05,-2e-05,-1e-05,1,11.0
2302,-1e-05,-2e-05,0.0,-2e-05,1e-05,-1e-05,-2e-05,-1e-05,1,11.0
2303,2e-05,0.0,1e-05,-2e-05,-2e-05,2e-05,0.0,-1e-05,1,11.0
2304,2e-05,0.0,1e-05,-2e-05,-2e-05,2e-05,0.0,-1e-05,1,11.0
2305,2e-05,0.0,1e-05,-2e-05,-2e-05,2e-05,0.0,-1e-05,1,11.0
2306,2e-05,0.0,1e-05,-2e-05,-2e-05,2e-05,0.0,-1e-05,1,11.0
2307,2e-05,0.0,1e-05,-2e-05,-2e-05,2e-05,0.0,-1e-05,1,11.0
2308,2e-05,0.0,1e-05,-2e-05,-2e-05,2e-05,0.0,-1e-05,1,11.0
2309,2e-05,0.0,1e-05,-2e-05,-2e-05,2e-05,0.0,-1e-05,1,11.0
2310,2e-05,0.0,1e-05,-2e-05,-2e-05,2e-05,0.0,-1e-05,1,11.0
2311,2e-05,0.0,1e-05,-2e-05,-2e-05,2e-05,0.0,-1e-05,1,11.0
2312,2e-05,0.0,1e-05,-2e-05,-2e-05,2e-05,0.0,-1e-05,1,11.0
2313,2e-05,0.0,1e-05,-2e-05,-2e-05,2e-05,0.0,-1e-05,1,11.0
2314,2e-05,0.0,1e-05,-2e-05,-2e-05,2e-05,0.0,-1e-05,1,11.0
2315,2e-05,0.0,1e-05,-2e-05,-2e-05,2e-05,0.0,-1e-05,1,11.0
2316,2e-05,0.0,1e-05,-2e-05,-2e-05,2e-05,0.0,-1e-05,1,11.0
2317,2e-05,0.0,1e-05,-2e-05,-2e-05,2e-05,0.0,-1e-05,1,11.0
2318,2e-05,0.0,1e-05,-2e-05,-2e-05,2e-05,0.0,-1e-05,1,11.0
2319,1e-05,0.0,-4e-05,-1e-05,-1e-05,1e-05,-1e-05,-1e-05,1,11.0
2320,-3e-05,-3e-05,0.0,-2e-05,-2e-05,-3e-05,-3e-05,0.0,1,11.0
2321,-1e-05,-1e-05,-1e-05,-2e-05,-1e-05,0.0,-1e-05,-4e-05,1,11.0
2322,-1e-05,-1e-05,-1e-05,-2e-05,-1e-05,0.0,-1e-05,-4e-05,1,11.0
2323,-1e-05,-1e-05,-1e-05,-2e-05,-1e-05,0.0,-1e-05,-4e-05,1,11.0
2324,-1e-05,-1e-05,-1e-05,-2e-05,-1e-05,0.0,-1e-05,-4e-05,1,11.0
4462,-5e-05,-7e-05,-0.00012,3e-05,0.00011,0.00018,-0.0001,-3e-05,2,11.0
4463,-5e-05,-7e-05,-0.00012,3e-05,0.00011,0.00018,-0.0001,-3e-05,2,11.0
4464,-5e-05,-7e-05,-0.00012,3e-05,0.00011,0.00018,-0.0001,-3e-05,2,11.0
4465,-2e-05,-5e-05,-1e-05,0.00012,0.00011,0.00081,0.00019,2e-05,2,11.0
4466,-2e-05,-5e-05,-1e-05,0.00012,0.00011,0.00081,0.00019,2e-05,2,11.0
4467,-2e-05,-5e-05,-1e-05,0.00012,0.00011,0.00081,0.00019,2e-05,2,11.0
4468,-2e-05,-5e-05,-1e-05,0.00012,0.00011,0.00081,0.00019,2e-05,2,11.0
4469,-2e-05,-5e-05,-1e-05,0.00012,0.00011,0.00081,0.00019,2e-05,2,11.0
4470,-2e-05,-5e-05,-1e-05,0.00012,0.00011,0.00081,0.00019,2e-05,2,11.0
4471,-2e-05,-5e-05,-1e-05,0.00012,0.00011,0.00081,0.00019,2e-05,2,11.0
4472,-2e-05,-5e-05,-1e-05,0.00012,0.00011,0.00081,0.00019,2e-05,2,11.0
4473,-2e-05,-5e-05,-1e-05,0.00012,0.00011,0.00081,0.00019,2e-05,2,11.0
4474,-2e-05,-5e-05,-1e-05,0.00012,0.00011,0.00081,0.00019,2e-05,2,11.0
4475,-2e-05,-5e-05,-1e-05,0.00012,0.00011,0.00081,0.00019,2e-05,2,11.0
4476,-2e-05,-5e-05,-1e-05,0.00012,0.00011,0.00081,0.00019,2e-05,2,11.0
4477,-2e-05,-5e-05,-1e-05,0.00012,0.00011,0.00081,0.00019,2e-05,2,11.0
4478,-2e-05,-5e-05,-1e-05,0.00012,0.00011,0.00081,0.00019,2e-05,2,11.0
4479,-2e-05,-5e-05,-1e-05,0.00012,0.00011,0.00081,0.00019,2e-05,2,11.0
4480,-2e-05,-5e-05,-1e-05,0.00012,0.00011,0.00081,0.00019,2e-05,2,11.0
4481,-2e-05,-5e-05,-1e-05,0.00012,0.00011,0.00081,0.00019,2e-05,2,11.0
4482,-2e-05,-5e-05,-1e-05,0.00012,0.00011,0.00081,0.00019,2e-05,2,11.0
4483,-2e-05,-5e-05,-1e-05,0.00012,0.00011,0.00081,0.00019,2e-05,2,11.0
4484,-2e-05,-5e-05,-1e-05,0.00012,0.00011,0.00081,0.00019,2e-05,2,11.0
4485,-2e-05,-5e-05,-1e-05,0.00012,0.00011,0.00081,0.00019,2e-05,2,11.0
4486,3e-05,6e-05,8e-05,-0.00013,-0.00034,-0.00057,-0.00013,-4e-05,2,11.0
4489,-0.00011,-0.00016,-0.0003,0.00049,0.0001,-0.00028,-0.00023,-9e-05,2,11.0
4490,-0.00011,-0.00016,-0.0003,0.00049,0.0001,-0.00028,-0.00023,-9e-05,2,11.0
4491,-0.00011,-0.00016,-0.0003,0.00049,0.0001,-0.00028,-0.00023,-9e-05,2,11.0
4492,-0.00011,-0.00016,-0.0003,0.00049,0.0001,-0.00028,-0.00023,-9e-05,2,11.0
4493,-0.00011,-0.00016,-0.0003,0.00049,0.0001,-0.00028,-0.00023,-9e-05,2,11.0
4494,-0.00011,-0.00016,-0.0003,0.00049,0.0001,-0.00028,-0.00023,-9e-05,2,11.0
4495,-0.00011,-0.00016,-0.0003,0.00049,0.0001,-0.00028,-0.00023,-9e-05,2,11.0
4496,-0.00011,-0.00016,-0.0003,0.00049,0.0001,-0.00028,-0.00023,-9e-05,2,11.0
4497,-0.00011,-0.00016,-0.0003,0.00049,0.0001,-0.00028,-0.00023,-9e-05,2,11.0
4498,-0.00011,-0.00016,-0.0003,0.00049,0.0001,-0.00028,-0.00023,-9e-05,2,11.0
4499,-0.00011,-0.00016,-0.0003,0.00049,0.0001,-0.00028,-0.00023,-9e-05,2,11.0
4500,-0.00011,-0.00016,-0.0003,0.00049,0.0001,-0.00028,-0.00023,-9e-05,2,11.0
4501,-8e-05,-0.0001,-0.00034,-0.00024,0.00021,0.0007,0.00041,5e-05,2,11.0
4502,-8e-05,-0.0001,-0.00034,-0.00024,0.00021,0.0007,0.00041,5e-05,2,11.0
4503,-8e-05,-0.0001,-0.00034,-0.00024,0.00021,0.0007,0.00041,5e-05,2,11.0
4504,-8e-05,-0.0001,-0.00034,-0.00024,0.00021,0.0007,0.00041,5e-05,2,11.0
4505,-8e-05,-0.0001,-0.00034,-0.00024,0.00021,0.0007,0.00041,5e-05,2,11.0
4506,-8e-05,-0.0001,-0.00034,-0.00024,0.00021,0.0007,0.00041,5e-05,2,11.0
4507,-8e-05,-0.0001,-0.00034,-0.00024,0.00021,0.0007,0.00041,5e-05,2,11.0
4508,-8e-05,-0.0001,-0.00034,-0.00024,0.00021,0.0007,0.00041,5e-05,2,11.0
4509,-8e-05,-0.0001,-0.00034,-0.00024,0.00021,0.0007,0.00041,5e-05,2,11.0
4510,-8e-05,-0.0001,-0.00034,-0.00024,0.00021,0.0007,0.00041,5e-05,2,11.0
4511,-8e-05,-0.0001,-0.00034,-0.00024,0.00021,0.0007,0.00041,5e-05,2,11.0
4512,-8e-05,-0.0001,-0.00034,-0.00024,0.00021,0.0007,0.00041,5e-05,2,11.0
4513,-8e-05,-0.0001,-0.00034,-0.00024,0.00021,0.0007,0.00041,5e-05,2,11.0
4514,-8e-05,-0.0001,-0.00034,-0.00024,0.00021,0.0007,0.00041,5e-05,2,11.0
4515,-8e-05,-0.0001,-0.00034,-0.00024,0.00021,0.0007,0.00041,5e-05,2,11.0
4516,-8e-05,-0.0001,-0.00034,-0.00024,0.00021,0.0007,0.00041,5e-05,2,11.0
4517,-8e-05,-0.0001,-0.00034,-0.00024,0.00021,0.0007,0.00041,5e-05,2,11.0
4518,-8e-05,-0.0001,-0.00034,-0.00024,0.00021,0.0007,0.00041,5e-05,2,11.0
4519,-8e-05,-0.0001,-0.00034,-0.00024,0.00021,0.0007,0.00041,5e-05,2,11.0
4520,-8e-05,-0.0001,-0.00034,-0.00024,0.00021,0.0007,0.00041,5e-05,2,11.0
4521,-8e-05,-0.0001,-0.00034,-0.00024,0.00021,0.0007,0.00041,5e-05,2,11.0
4522,-8e-05,-0.0001,-0.00034,-0.00024,0.00021,0.0007,0.00041,5e-05,2,11.0
4523,-8e-05,-0.0001,-0.00034,-0.00024,0.00021,0.0007,0.00041,5e-05,2,11.0
4524,-4e-05,-2e-05,0.0,7e-05,0.00011,9e-05,-0.00012,-0.00011,2,11.0
4525,0.0,0.0,9e-05,0.00019,-0.00015,-0.00011,-0.00019,5e-05,2,11.0
4526,0.0,0.0,9e-05,0.00019,-0.00015,-0.00011,-0.00019,5e-05,2,11.0
4527,0.0,0.0,9e-05,0.00019,-0.00015,-0.00011,-0.00019,5e-05,2,11.0
4528,0.0,0.0,9e-05,0.00019,-0.00015,-0.00011,-0.00019,5e-05,2,11.0
4529,0.0,0.0,9e-05,0.00019,-0.00015,-0.00011,-0.00019,5e-05,2,11.0
4530,0.0,0.0,9e-05,0.00019,-0.00015,-0.00011,-0.00019,5e-05,2,11.0
4531,0.0,0.0,9e-05,0.00019,-0.00015,-0.00011,-0.00019,5e-05,2,11.0
4532,0.0,0.0,9e-05,0.00019,-0.00015,-0.00011,-0.00019,5e-05,2,11.0
4533,0.0,0.0,9e-05,0.00019,-0.00015,-0.00011,-0.00019,5e-05,2,11.0
4534,0.0,0.0,9e-05,0.00019,-0.00015,-0.00011,-0.00019,5e-05,2,11.0
4535,0.0,0.0,9e-05,0.00019,-0.00015,-0.00011,-0.00019,5e-05,2,11.0
4536,0.0,0.0,9e-05,0.00019,-0.00015,-0.00011,-0.00019,5e-05,2,11.0
4538,0.0,0.0,9e-05,0.00019,-0.00015,-0.00011,-0.00019,5e-05,2,11.0
4539,0.0,0.0,9e-05,0.00019,-0.00015,-0.00011,-0.00019,5e-05,2,11.0
4540,0.0,0.0,9e-05,0.00019,-0.00015,-0.00011,-0.00019,5e-05,2,11.0
4541,0.0,0.0,9e-05,0.00019,-0.00015,-0.00011,-0.00019,5e-05,2,11.0
4542,0.0,0.0,9e-05,0.00019,-0.00015,-0.00011,-0.00019,5e-05,2,11.0
4543,0.0,0.0,9e-05,0.00019,-0.00015,-0.00011,-0.00019,5e-05,2,11.0
4544,0.0,0.0,9e-05,0.00019,-0.00015,-0.00011,-0.00019,5e-05,2,11.0
4545,0.0,0.0,9e-05,0.00019,-0.00015,-0.00011,-0.00019,5e-05,2,11.0
4546,0.0,0.0,9e-05,0.00019,-0.00015,-0.00011,-0.00019,5e-05,2,11.0
4547,5e-05,7e-05,0.00015,9e-05,-5e-05,0.0,-0.0001,1e-05,2,11.0
4548,5e-05,7e-05,0.00015,9e-05,-5e-05,0.0,-0.0001,1e-05,2,11.0
4549,5e-05,7e-05,0.00015,9e-05,-5e-05,0.0,-0.0001,1e-05,2,11.0
4550,5e-05,7e-05,0.00015,9e-05,-5e-05,0.0,-0.0001,1e-05,2,11.0
4551,5e-05,7e-05,0.00015,9e-05,-5e-05,0.0,-0.0001,1e-05,2,11.0
4552,5e-05,7e-05,0.00015,9e-05,-5e-05,0.0,-0.0001,1e-05,2,11.0
4553,5e-05,7e-05,0.00015,9e-05,-5e-05,0.0,-0.0001,1e-05,2,11.0
4554,5e-05,7e-05,0.00015,9e-05,-5e-05,0.0,-0.0001,1e-05,2,11.0
4555,5e-05,7e-05,0.00015,9e-05,-5e-05,0.0,-0.0001,1e-05,2,11.0
4556,5e-05,7e-05,0.00015,9e-05,-5e-05,0.0,-0.0001,1e-05,2,11.0
4557,5e-05,7e-05,0.00015,9e-05,-5e-05,0.0,-0.0001,1e-05,2,11.0
4558,5e-05,7e-05,0.00015,9e-05,-5e-05,0.0,-0.0001,1e-05,2,11.0
4559,5e-05,7e-05,0.00015,9e-05,-5e-05,0.0,-0.0001,1e-05,2,11.0
4560,4e-05,2e-05,0.0,7e-05,0.00011,-0.00014,-0.00017,-3e-05,2,11.0
4561,4e-05,2e-05,0.0,7e-05,0.00011,-0.00014,-0.00017,-3e-05,2,11.0
4562,4e-05,2e-05,0.0,7e-05,0.00011,-0.00014,-0.00017,-3e-05,2,11.0
4563,4e-05,2e-05,0.0,7e-05,0.00011,-0.00014,-0.00017,-3e-05,2,11.0
4564,4e-05,2e-05,0.0,7e-05,0.00011,-0.00014,-0.00017,-3e-05,2,11.0
4565,4e-05,2e-05,0.0,7e-05,0.00011,-0.00014,-0.00017,-3e-05,2,11.0
4566,4e-05,2e-05,0.0,7e-05,0.00011,-0.00014,-0.00017,-3e-05,2,11.0
4567,4e-05,2e-05,0.0,7e-05,0.00011,-0.00014,-0.00017,-3e-05,2,11.0
4568,4e-05,2e-05,0.0,7e-05,0.00011,-0.00014,-0.00017,-3e-05,2,11.0
4569,0.00014,0.00011,-5e-05,4e-05,-2e-05,-0.00036,-0.00023,-2e-05,2,11.0
4570,0.00014,0.00011,-5e-05,4e-05,-2e-05,-0.00036,-0.00023,-2e-05,2,11.0
4571,0.00014,0.00011,-5e-05,4e-05,-2e-05,-0.00036,-0.00023,-2e-05,2,11.0
4572,0.00014,0.00011,-5e-05,4e-05,-2e-05,-0.00036,-0.00023,-2e-05,2,11.0
4573,0.00014,0.00011,-5e-05,4e-05,-2e-05,-0.00036,-0.00023,-2e-05,2,11.0
4574,0.00014,0.00011,-5e-05,4e-05,-2e-05,-0.00036,-0.00023,-2e-05,2,11.0
4575,0.00014,0.00011,-5e-05,4e-05,-2e-05,-0.00036,-0.00023,-2e-05,2,11.0
4576,0.00014,0.00011,-5e-05,4e-05,-2e-05,-0.00036,-0.00023,-2e-05,2,11.0
4577,0.00014,0.00011,-5e-05,4e-05,-2e-05,-0.00036,-0.00023,-2e-05,2,11.0
4578,0.00014,0.00011,-5e-05,4e-05,-2e-05,-0.00036,-0.00023,-2e-05,2,11.0
4579,0.00014,0.00011,-5e-05,4e-05,-2e-05,-0.00036,-0.00023,-2e-05,2,11.0
4580,0.00014,0.00011,-5e-05,4e-05,-2e-05,-0.00036,-0.00023,-2e-05,2,11.0
4581,0.00014,0.00011,-5e-05,4e-05,-2e-05,-0.00036,-0.00023,-2e-05,2,11.0
4582,0.00014,0.00011,-5e-05,4e-05,-2e-05,-0.00036,-0.00023,-2e-05,2,11.0
4583,-1e-05,-0.00018,-0.00034,-9e-05,-2e-05,1e-05,0.00011,-4e-05,2,11.0
4584,4e-05,7e-05,0.00023,-8e-05,-0.00014,0.00025,7e-05,4e-05,2,11.0
4585,4e-05,7e-05,0.00023,-8e-05,-0.00014,0.00025,7e-05,4e-05,2,11.0
4586,4e-05,7e-05,0.00023,-8e-05,-0.00014,0.00025,7e-05,4e-05,2,11.0
4588,4e-05,7e-05,0.00023,-8e-05,-0.00014,0.00025,7e-05,4e-05,2,11.0
4589,4e-05,7e-05,0.00023,-8e-05,-0.00014,0.00025,7e-05,4e-05,2,11.0
4590,4e-05,7e-05,0.00023,-8e-05,-0.00014,0.00025,7e-05,4e-05,2,11.0
4591,4e-05,7e-05,0.00023,-8e-05,-0.00014,0.00025,7e-05,4e-05,2,11.0
4592,4e-05,7e-05,0.00023,-8e-05,-0.00014,0.00025,7e-05,4e-05,2,11.0
4593,4e-05,7e-05,0.00023,-8e-05,-0.00014,0.00025,7e-05,4e-05,2,11.0
4594,4e-05,7e-05,0.00023,-8e-05,-0.00014,0.00025,7e-05,4e-05,2,11.0
4595,4e-05,7e-05,0.00023,-8e-05,-0.00014,0.00025,7e-05,4e-05,2,11.0
4596,4e-05,7e-05,0.00023,-8e-05,-0.00014,0.00025,7e-05,4e-05,2,11.0
4597,4e-05,7e-05,0.00023,-8e-05,-0.00014,0.00025,7e-05,4e-05,2,11.0
4598,4e-05,7e-05,0.00023,-8e-05,-0.00014,0.00025,7e-05,4e-05,2,11.0
4599,4e-05,7e-05,0.00023,-8e-05,-0.00014,0.00025,7e-05,4e-05,2,11.0
4600,4e-05,7e-05,0.00023,-8e-05,-0.00014,0.00025,7e-05,4e-05,2,11.0
4601,4e-05,7e-05,0.00023,-8e-05,-0.00014,0.00025,7e-05,4e-05,2,11.0
4602,4e-05,7e-05,0.00023,-8e-05,-0.00014,0.00025,7e-05,4e-05,2,11.0
4603,4e-05,7e-05,0.00023,-8e-05,-0.00014,0.00025,7e-05,4e-05,2,11.0
4604,4e-05,7e-05,0.00023,-8e-05,-0.00014,0.00025,7e-05,4e-05,2,11.0
4605,4e-05,7e-05,0.00023,-8e-05,-0.00014,0.00025,7e-05,4e-05,2,11.0
4606,-5e-05,2e-05,0.00016,-7e-05,-0.00021,-0.00069,0.00012,4e-05,2,11.0
4607,6e-05,0.00012,0.00046,4e-05,-0.00034,-0.00023,0.00014,2e-05,2,11.0
4608,6e-05,0.00012,0.00046,4e-05,-0.00034,-0.00023,0.00014,2e-05,2,11.0
4609,6e-05,0.00012,0.00046,4e-05,-0.00034,-0.00023,0.00014,2e-05,2,11.0
4610,6e-05,0.00012,0.00046,4e-05,-0.00034,-0.00023,0.00014,2e-05,2,11.0
4611,6e-05,0.00012,0.00046,4e-05,-0.00034,-0.00023,0.00014,2e-05,2,11.0
4612,6e-05,0.00012,0.00046,4e-05,-0.00034,-0.00023,0.00014,2e-05,2,11.0
4613,6e-05,0.00012,0.00046,4e-05,-0.00034,-0.00023,0.00014,2e-05,2,11.0
4614,6e-05,0.00012,0.00046,4e-05,-0.00034,-0.00023,0.00014,2e-05,2,11.0
4615,6e-05,0.00012,0.00046,4e-05,-0.00034,-0.00023,0.00014,2e-05,2,11.0
4616,6e-05,0.00012,0.00046,4e-05,-0.00034,-0.00023,0.00014,2e-05,2,11.0
4617,6e-05,0.00012,0.00046,4e-05,-0.00034,-0.00023,0.00014,2e-05,2,11.0
4618,6e-05,0.00012,0.00046,4e-05,-0.00034,-0.00023,0.00014,2e-05,2,11.0
4619,6e-05,0.00012,0.00046,4e-05,-0.00034,-0.00023,0.00014,2e-05,2,11.0
4620,6e-05,0.00012,0.00046,4e-05,-0.00034,-0.00023,0.00014,2e-05,2,11.0
4621,6e-05,0.00012,0.00046,4e-05,-0.00034,-0.00023,0.00014,2e-05,2,11.0
4622,6e-05,0.00012,0.00046,4e-05,-0.00034,-0.00023,0.00014,2e-05,2,11.0
4623,6e-05,0.00012,0.00046,4e-05,-0.00034,-0.00023,0.00014,2e-05,2,11.0
4624,6e-05,0.00012,0.00046,4e-05,-0.00034,-0.00023,0.00014,2e-05,2,11.0
4625,6e-05,0.00012,0.00046,4e-05,-0.00034,-0.00023,0.00014,2e-05,2,11.0
4626,6e-05,0.00012,0.00046,4e-05,-0.00034,-0.00023,0.00014,2e-05,2,11.0
4627,6e-05,0.00012,0.00046,4e-05,-0.00034,-0.00023,0.00014,2e-05,2,11.0
4628,6e-05,0.00012,0.00046,4e-05,-0.00034,-0.00023,0.00014,2e-05,2,11.0
4629,-5e-05,-1e-05,1e-05,-7e-05,2e-05,0.00057,-0.00012,-2e-05,2,11.0
4630,0.00013,7e-05,8e-05,8e-05,4e-05,6e-05,-0.0001,5e-05,2,11.0
4631,0.00013,7e-05,8e-05,8e-05,4e-05,6e-05,-0.0001,5e-05,2,11.0
4632,0.00013,7e-05,8e-05,8e-05,4e-05,6e-05,-0.0001,5e-05,2,11.0
4633,0.00013,7e-05,8e-05,8e-05,4e-05,6e-05,-0.0001,5e-05,2,11.0
4634,0.00013,7e-05,8e-05,8e-05,4e-05,6e-05,-0.0001,5e-05,2,11.0
4635,0.00013,7e-05,8e-05,8e-05,4e-05,6e-05,-0.0001,5e-05,2,11.0
4636,0.00013,7e-05,8e-05,8e-05,4e-05,6e-05,-0.0001,5e-05,2,11.0
4638,0.00013,7e-05,8e-05,8e-05,4e-05,6e-05,-0.0001,5e-05,2,11.0
4639,0.00013,7e-05,8e-05,8e-05,4e-05,6e-05,-0.0001,5e-05,2,11.0
4640,0.00013,7e-05,8e-05,8e-05,4e-05,6e-05,-0.0001,5e-05,2,11.0
4641,0.00013,7e-05,8e-05,8e-05,4e-05,6e-05,-0.0001,5e-05,2,11.0
4642,0.00013,7e-05,8e-05,8e-05,4e-05,6e-05,-0.0001,5e-05,2,11.0
4643,0.00013,7e-05,8e-05,8e-05,4e-05,6e-05,-0.0001,5e-05,2,11.0
4644,0.00013,7e-05,8e-05,8e-05,4e-05,6e-05,-0.0001,5e-05,2,11.0
4645,0.00013,7e-05,8e-05,8e-05,4e-05,6e-05,-0.0001,5e-05,2,11.0
4646,0.00013,7e-05,8e-05,8e-05,4e-05,6e-05,-0.0001,5e-05,2,11.0
4647,0.00013,7e-05,8e-05,8e-05,4e-05,6e-05,-0.0001,5e-05,2,11.0
4648,0.00013,7e-05,8e-05,8e-05,4e-05,6e-05,-0.0001,5e-05,2,11.0
4649,0.00013,7e-05,8e-05,8e-05,4e-05,6e-05,-0.0001,5e-05,2,11.0
4650,0.00013,7e-05,8e-05,8e-05,4e-05,6e-05,-0.0001,5e-05,2,11.0
4651,-1e-05,-4e-05,-0.00013,-0.00015,3e-05,-0.00041,-3e-05,0.0,2,11.0
4652,-5e-05,4e-05,0.00018,-4e-05,0.0001,0.00017,-8e-05,-5e-05,2,11.0
4653,-5e-05,4e-05,0.00018,-4e-05,0.0001,0.00017,-8e-05,-5e-05,2,11.0
4654,-5e-05,4e-05,0.00018,-4e-05,0.0001,0.00017,-8e-05,-5e-05,2,11.0
4655,-5e-05,4e-05,0.00018,-4e-05,0.0001,0.00017,-8e-05,-5e-05,2,11.0
4656,-5e-05,4e-05,0.00018,-4e-05,0.0001,0.00017,-8e-05,-5e-05,2,11.0
4657,-5e-05,4e-05,0.00018,-4e-05,0.0001,0.00017,-8e-05,-5e-05,2,11.0
4658,-5e-05,4e-05,0.00018,-4e-05,0.0001,0.00017,-8e-05,-5e-05,2,11.0
4659,-5e-05,4e-05,0.00018,-4e-05,0.0001,0.00017,-8e-05,-5e-05,2,11.0
4660,-5e-05,4e-05,0.00018,-4e-05,0.0001,0.00017,-8e-05,-5e-05,2,11.0
4661,-5e-05,4e-05,0.00018,-4e-05,0.0001,0.00017,-8e-05,-5e-05,2,11.0
4662,-5e-05,4e-05,0.00018,-4e-05,0.0001,0.00017,-8e-05,-5e-05,2,11.0
4663,-5e-05,4e-05,0.00018,-4e-05,0.0001,0.00017,-8e-05,-5e-05,2,11.0
4664,-5e-05,4e-05,0.00018,-4e-05,0.0001,0.00017,-8e-05,-5e-05,2,11.0
4665,-1e-05,-1e-05,-6e-05,5e-05,-0.00013,7e-05,-0.00032,0.0,2,11.0
4666,-1e-05,-1e-05,-6e-05,5e-05,-0.00013,7e-05,-0.00032,0.0,2,11.0
4667,-1e-05,-1e-05,-6e-05,5e-05,-0.00013,7e-05,-0.00032,0.0,2,11.0
4668,-1e-05,-1e-05,-6e-05,5e-05,-0.00013,7e-05,-0.00032,0.0,2,11.0
4669,-1e-05,-1e-05,-6e-05,5e-05,-0.00013,7e-05,-0.00032,0.0,2,11.0
4670,-1e-05,-1e-05,-6e-05,5e-05,-0.00013,7e-05,-0.00032,0.0,2,11.0
4671,-1e-05,-1e-05,-6e-05,5e-05,-0.00013,7e-05,-0.00032,0.0,2,11.0
4672,-1e-05,-1e-05,-6e-05,5e-05,-0.00013,7e-05,-0.00032,0.0,2,11.0
4673,-4e-05,-2e-05,0.00012,-7e-05,5e-05,0.00086,0.00024,-3e-05,2,11.0
4674,-4e-05,-2e-05,0.00012,-7e-05,5e-05,0.00086,0.00024,-3e-05,2,11.0
4675,-4e-05,-2e-05,0.00012,-7e-05,5e-05,0.00086,0.00024,-3e-05,2,11.0
4676,-4e-05,-2e-05,0.00012,-7e-05,5e-05,0.00086,0.00024,-3e-05,2,11.0
4677,-4e-05,-2e-05,0.00012,-7e-05,5e-05,0.00086,0.00024,-3e-05,2,11.0
4678,-4e-05,-2e-05,0.00012,-7e-05,5e-05,0.00086,0.00024,-3e-05,2,11.0
4679,-4e-05,-2e-05,0.00012,-7e-05,5e-05,0.00086,0.00024,-3e-05,2,11.0
4680,2e-05,3e-05,0.00025,0.0001,-0.00016,-0.00038,0.00024,-1e-05,2,11.0
4681,2e-05,3e-05,0.00025,0.0001,-0.00016,-0.00038,0.00024,-1e-05,2,11.0
4682,2e-05,3e-05,0.00025,0.0001,-0.00016,-0.00038,0.00024,-1e-05,2,11.0
4683,2e-05,3e-05,0.00025,0.0001,-0.00016,-0.00038,0.00024,-1e-05,2,11.0
4684,2e-05,3e-05,0.00025,0.0001,-0.00016,-0.00038,0.00024,-1e-05,2,11.0
4685,2e-05,3e-05,0.00025,0.0001,-0.00016,-0.00038,0.00024,-1e-05,2,11.0
4686,2e-05,3e-05,0.00025,0.0001,-0.00016,-0.00038,0.00024,-1e-05,2,11.0
4688,2e-05,3e-05,0.00025,0.0001,-0.00016,-0.00038,0.00024,-1e-05,2,11.0
4689,2e-05,3e-05,0.00025,0.0001,-0.00016,-0.00038,0.00024,-1e-05,2,11.0
4690,2e-05,3e-05,0.00025,0.0001,-0.00016,-0.00038,0.00024,-1e-05,2,11.0
4691,2e-05,3e-05,0.00025,0.0001,-0.00016,-0.00038,0.00024,-1e-05,2,11.0
4692,2e-05,3e-05,0.00025,0.0001,-0.00016,-0.00038,0.00024,-1e-05,2,11.0
4693,2e-05,3e-05,0.00025,0.0001,-0.00016,-0.00038,0.00024,-1e-05,2,11.0
4694,2e-05,3e-05,0.00025,0.0001,-0.00016,-0.00038,0.00024,-1e-05,2,11.0
4695,2e-05,3e-05,0.00025,0.0001,-0.00016,-0.00038,0.00024,-1e-05,2,11.0
4696,-6e-05,-4e-05,1e-05,0.00023,-1e-05,-0.0002,5e-05,-2e-05,2,11.0
4697,-3e-05,-5e-05,-0.00014,8e-05,1e-05,-0.00011,-0.00015,-2e-05,2,11.0
4698,-3e-05,-5e-05,-0.00014,8e-05,1e-05,-0.00011,-0.00015,-2e-05,2,11.0
4699,-3e-05,-5e-05,-0.00014,8e-05,1e-05,-0.00011,-0.00015,-2e-05,2,11.0
4700,-3e-05,-5e-05,-0.00014,8e-05,1e-05,-0.00011,-0.00015,-2e-05,2,11.0
4701,-3e-05,-5e-05,-0.00014,8e-05,1e-05,-0.00011,-0.00015,-2e-05,2,11.0
4702,-3e-05,-5e-05,-0.00014,8e-05,1e-05,-0.00011,-0.00015,-2e-05,2,11.0
4703,7e-05,3e-05,-2e-05,-0.00015,0.00015,0.00036,5e-05,0.00015,2,11.0
4704,-3e-05,4e-05,-1e-05,-2e-05,-5e-05,-0.00025,-0.00015,1e-05,2,11.0
4705,-3e-05,4e-05,-1e-05,-2e-05,-5e-05,-0.00025,-0.00015,1e-05,2,11.0
4706,-3e-05,4e-05,-1e-05,-2e-05,-5e-05,-0.00025,-0.00015,1e-05,2,11.0
4707,-3e-05,4e-05,-1e-05,-2e-05,-5e-05,-0.00025,-0.00015,1e-05,2,11.0
4708,-3e-05,4e-05,-1e-05,-2e-05,-5e-05,-0.00025,-0.00015,1e-05,2,11.0
4709,-3e-05,4e-05,-1e-05,-2e-05,-5e-05,-0.00025,-0.00015,1e-05,2,11.0
4710,-3e-05,4e-05,-1e-05,-2e-05,-5e-05,-0.00025,-0.00015,1e-05,2,11.0
4711,-3e-05,4e-05,-1e-05,-2e-05,-5e-05,-0.00025,-0.00015,1e-05,2,11.0
4712,-3e-05,4e-05,-1e-05,-2e-05,-5e-05,-0.00025,-0.00015,1e-05,2,11.0
4713,-3e-05,4e-05,-1e-05,-2e-05,-5e-05,-0.00025,-0.00015,1e-05,2,11.0
4714,-3e-05,4e-05,-1e-05,-2e-05,-5e-05,-0.00025,-0.00015,1e-05,2,11.0
4715,-3e-05,4e-05,-1e-05,-2e-05,-5e-05,-0.00025,-0.00015,1e-05,2,11.0
4716,-3e-05,4e-05,-1e-05,-2e-05,-5e-05,-0.00025,-0.00015,1e-05,2,11.0
4717,-3e-05,4e-05,-1e-05,-2e-05,-5e-05,-0.00025,-0.00015,1e-05,2,11.0
4718,-3e-05,4e-05,-1e-05,-2e-05,-5e-05,-0.00025,-0.00015,1e-05,2,11.0
4719,-3e-05,4e-05,-1e-05,-2e-05,-5e-05,-0.00025,-0.00015,1e-05,2,11.0
4720,-3e-05,4e-05,-1e-05,-2e-05,-5e-05,-0.00025,-0.00015,1e-05,2,11.0
4721,-3e-05,4e-05,-1e-05,-2e-05,-5e-05,-0.00025,-0.00015,1e-05,2,11.0
4722,-3e-05,4e-05,-1e-05,-2e-05,-5e-05,-0.00025,-0.00015,1e-05,2,11.0
4723,-3e-05,4e-05,-1e-05,-2e-05,-5e-05,-0.00025,-0.00015,1e-05,2,11.0
4724,-3e-05,4e-05,-1e-05,-2e-05,-5e-05,-0.00025,-0.00015,1e-05,2,11.0
4725,-3e-05,4e-05,-1e-05,-2e-05,-5e-05,-0.00025,-0.00015,1e-05,2,11.0
4726,-7e-05,-4e-05,-9e-05,0.00025,2e-05,-5e-05,0.00011,-0.00014,2,11.0
4727,-0.0001,-8e-05,-8e-05,-0.00028,-0.00019,-0.00042,-9e-05,-9e-05,2,11.0
4728,-0.0001,-8e-05,-8e-05,-0.00028,-0.00019,-0.00042,-9e-05,-9e-05,2,11.0
4729,-0.0001,-8e-05,-8e-05,-0.00028,-0.00019,-0.00042,-9e-05,-9e-05,2,11.0
4730,-0.0001,-8e-05,-8e-05,-0.00028,-0.00019,-0.00042,-9e-05,-9e-05,2,11.0
4731,-0.0001,-8e-05,-8e-05,-0.00028,-0.00019,-0.00042,-9e-05,-9e-05,2,11.0
4732,-0.0001,-8e-05,-8e-05,-0.00028,-0.00019,-0.00042,-9e-05,-9e-05,2,11.0
4733,-0.0001,-8e-05,-8e-05,-0.00028,-0.00019,-0.00042,-9e-05,-9e-05,2,11.0
4734,-0.0001,-8e-05,-8e-05,-0.00028,-0.00019,-0.00042,-9e-05,-9e-05,2,11.0
4735,-0.0001,-8e-05,-8e-05,-0.00028,-0.00019,-0.00042,-9e-05,-9e-05,2,11.0
4736,-0.0001,-8e-05,-8e-05,-0.00028,-0.00019,-0.00042,-9e-05,-9e-05,2,11.0
4738,-0.0001,-8e-05,-8e-05,-0.00028,-0.00019,-0.00042,-9e-05,-9e-05,2,11.0
4739,-0.0001,-8e-05,-8e-05,-0.00028,-0.00019,-0.00042,-9e-05,-9e-05,2,11.0
4740,2e-05,-7e-05,-0.00015,-0.00016,4e-05,-0.00047,-0.00015,-6e-05,2,11.0
4741,2e-05,-7e-05,-0.00015,-0.00016,4e-05,-0.00047,-0.00015,-6e-05,2,11.0
4742,2e-05,-7e-05,-0.00015,-0.00016,4e-05,-0.00047,-0.00015,-6e-05,2,11.0
4743,2e-05,-7e-05,-0.00015,-0.00016,4e-05,-0.00047,-0.00015,-6e-05,2,11.0
4744,2e-05,-7e-05,-0.00015,-0.00016,4e-05,-0.00047,-0.00015,-6e-05,2,11.0
4745,2e-05,-7e-05,-0.00015,-0.00016,4e-05,-0.00047,-0.00015,-6e-05,2,11.0
4746,2e-05,-7e-05,-0.00015,-0.00016,4e-05,-0.00047,-0.00015,-6e-05,2,11.0
4747,2e-05,-7e-05,-0.00015,-0.00016,4e-05,-0.00047,-0.00015,-6e-05,2,11.0
4748,-0.0001,-0.00012,-0.00018,-0.00018,-0.00027,-0.00119,-0.00047,-0.00015,2,11.0
4749,-0.0001,-0.00012,-0.00018,-0.00018,-0.00027,-0.00119,-0.00047,-0.00015,2,11.0
4750,-0.0001,-0.00012,-0.00018,-0.00018,-0.00027,-0.00119,-0.00047,-0.00015,2,11.0
4751,-0.0001,-0.00012,-0.00018,-0.00018,-0.00027,-0.00119,-0.00047,-0.00015,2,11.0
4752,-0.0001,-0.00012,-0.00018,-0.00018,-0.00027,-0.00119,-0.00047,-0.00015,2,11.0
4753,-0.0001,-0.00012,-0.00018,-0.00018,-0.00027,-0.00119,-0.00047,-0.00015,2,11.0
4754,-0.0001,-0.00012,-0.00018,-0.00018,-0.00027,-0.00119,-0.00047,-0.00015,2,11.0
4755,-0.0001,-0.00012,-0.00018,-0.00018,-0.00027,-0.00119,-0.00047,-0.00015,2,11.0
4756,-0.0001,-0.00012,-0.00018,-0.00018,-0.00027,-0.00119,-0.00047,-0.00015,2,11.0
4757,-0.0001,-0.00012,-0.00018,-0.00018,-0.00027,-0.00119,-0.00047,-0.00015,2,11.0
4758,-0.0001,-0.00012,-0.00018,-0.00018,-0.00027,-0.00119,-0.00047,-0.00015,2,11.0
4759,-0.0001,-0.00012,-0.00018,-0.00018,-0.00027,-0.00119,-0.00047,-0.00015,2,11.0
4760,-0.0001,-0.00012,-0.00018,-0.00018,-0.00027,-0.00119,-0.00047,-0.00015,2,11.0
4761,-0.0001,-0.00012,-0.00018,-0.00018,-0.00027,-0.00119,-0.00047,-0.00015,2,11.0
4762,-0.0001,-0.00012,-0.00018,-0.00018,-0.00027,-0.00119,-0.00047,-0.00015,2,11.0
4763,-0.0001,-0.00012,-0.00018,-0.00018,-0.00027,-0.00119,-0.00047,-0.00015,2,11.0
4764,4e-05,3e-05,-0.00012,2e-05,3e-05,-0.00029,-0.00028,1e-05,2,11.0
4765,0.00011,6e-05,6e-05,-0.00016,-7e-05,0.00019,0.0001,9e-05,2,11.0
4766,0.00011,6e-05,6e-05,-0.00016,-7e-05,0.00019,0.0001,9e-05,2,11.0
4767,0.00011,6e-05,6e-05,-0.00016,-7e-05,0.00019,0.0001,9e-05,2,11.0
4768,0.00011,6e-05,6e-05,-0.00016,-7e-05,0.00019,0.0001,9e-05,2,11.0
4769,0.00011,6e-05,6e-05,-0.00016,-7e-05,0.00019,0.0001,9e-05,2,11.0
4770,0.00011,6e-05,6e-05,-0.00016,-7e-05,0.00019,0.0001,9e-05,2,11.0
4771,0.00011,6e-05,6e-05,-0.00016,-7e-05,0.00019,0.0001,9e-05,2,11.0
4772,0.00011,6e-05,6e-05,-0.00016,-7e-05,0.00019,0.0001,9e-05,2,11.0
4773,0.00011,6e-05,6e-05,-0.00016,-7e-05,0.00019,0.0001,9e-05,2,11.0
4774,0.00011,6e-05,6e-05,-0.00016,-7e-05,0.00019,0.0001,9e-05,2,11.0
4775,0.00011,6e-05,6e-05,-0.00016,-7e-05,0.00019,0.0001,9e-05,2,11.0
4776,0.00011,6e-05,6e-05,-0.00016,-7e-05,0.00019,0.0001,9e-05,2,11.0
4777,0.00011,6e-05,6e-05,-0.00016,-7e-05,0.00019,0.0001,9e-05,2,11.0
4778,0.00011,6e-05,6e-05,-0.00016,-7e-05,0.00019,0.0001,9e-05,2,11.0
4779,0.00011,6e-05,6e-05,-0.00016,-7e-05,0.00019,0.0001,9e-05,2,11.0
4780,0.00011,6e-05,6e-05,-0.00016,-7e-05,0.00019,0.0001,9e-05,2,11.0
4781,0.00011,6e-05,6e-05,-0.00016,-7e-05,0.00019,0.0001,9e-05,2,11.0
4782,0.00011,6e-05,6e-05,-0.00016,-7e-05,0.00019,0.0001,9e-05,2,11.0
4783,0.00011,6e-05,6e-05,-0.00016,-7e-05,0.00019,0.0001,9e-05,2,11.0
4784,0.00011,6e-05,6e-05,-0.00016,-7e-05,0.00019,0.0001,9e-05,2,11.0
4785,0.00011,6e-05,6e-05,-0.00016,-7e-05,0.00019,0.0001,9e-05,2,11.0
4786,-0.00014,-9e-05,-4e-05,-0.00023,-0.00026,-0.00012,1e-05,-4e-05,2,11.0
4788,0.0001,-2e-05,-3e-05,0.00035,0.00016,0.00017,0.00032,6e-05,2,11.0
4789,0.0001,-2e-05,-3e-05,0.00035,0.00016,0.00017,0.00032,6e-05,2,11.0
4790,0.0001,-2e-05,-3e-05,0.00035,0.00016,0.00017,0.00032,6e-05,2,11.0
4791,0.0001,-2e-05,-3e-05,0.00035,0.00016,0.00017,0.00032,6e-05,2,11.0
4792,0.0001,-2e-05,-3e-05,0.00035,0.00016,0.00017,0.00032,6e-05,2,11.0
4793,0.0001,-2e-05,-3e-05,0.00035,0.00016,0.00017,0.00032,6e-05,2,11.0
4794,0.0001,-2e-05,-3e-05,0.00035,0.00016,0.00017,0.00032,6e-05,2,11.0
4795,0.0001,-2e-05,-3e-05,0.00035,0.00016,0.00017,0.00032,6e-05,2,11.0
4796,0.0001,-2e-05,-3e-05,0.00035,0.00016,0.00017,0.00032,6e-05,2,11.0
4797,0.0001,-2e-05,-3e-05,0.00035,0.00016,0.00017,0.00032,6e-05,2,11.0
4798,0.0001,-2e-05,-3e-05,0.00035,0.00016,0.00017,0.00032,6e-05,2,11.0
4799,0.0001,-2e-05,-3e-05,0.00035,0.00016,0.00017,0.00032,6e-05,2,11.0
4800,-5e-05,0.0,-0.0001,-6e-05,0.00018,0.00015,-0.00011,0.0,2,11.0
4801,-5e-05,0.0,-0.0001,-6e-05,0.00018,0.00015,-0.00011,0.0,2,11.0
4802,-5e-05,0.0,-0.0001,-6e-05,0.00018,0.00015,-0.00011,0.0,2,11.0
4803,-5e-05,0.0,-0.0001,-6e-05,0.00018,0.00015,-0.00011,0.0,2,11.0
4804,-5e-05,0.0,-0.0001,-6e-05,0.00018,0.00015,-0.00011,0.0,2,11.0
4805,-5e-05,0.0,-0.0001,-6e-05,0.00018,0.00015,-0.00011,0.0,2,11.0
4806,-5e-05,0.0,-0.0001,-6e-05,0.00018,0.00015,-0.00011,0.0,2,11.0
4807,-5e-05,0.0,-0.0001,-6e-05,0.00018,0.00015,-0.00011,0.0,2,11.0
4808,-6e-05,-2e-05,-3e-05,2e-05,-1e-05,-0.00064,-3e-05,-3e-05,2,11.0
4809,-6e-05,-2e-05,-3e-05,2e-05,-1e-05,-0.00064,-3e-05,-3e-05,2,11.0
4810,-6e-05,-2e-05,-3e-05,2e-05,-1e-05,-0.00064,-3e-05,-3e-05,2,11.0
4811,-6e-05,-2e-05,-3e-05,2e-05,-1e-05,-0.00064,-3e-05,-3e-05,2,11.0
4812,-6e-05,-2e-05,-3e-05,2e-05,-1e-05,-0.00064,-3e-05,-3e-05,2,11.0
4813,-6e-05,-2e-05,-3e-05,2e-05,-1e-05,-0.00064,-3e-05,-3e-05,2,11.0
4814,-6e-05,-2e-05,-3e-05,2e-05,-1e-05,-0.00064,-3e-05,-3e-05,2,11.0
4815,-6e-05,-2e-05,-3e-05,2e-05,-1e-05,-0.00064,-3e-05,-3e-05,2,11.0
4816,-6e-05,-2e-05,-3e-05,2e-05,-1e-05,-0.00064,-3e-05,-3e-05,2,11.0
4817,-6e-05,-2e-05,-3e-05,2e-05,-1e-05,-0.00064,-3e-05,-3e-05,2,11.0
4818,-6e-05,-2e-05,-3e-05,2e-05,-1e-05,-0.00064,-3e-05,-3e-05,2,11.0
4819,-6e-05,-2e-05,-3e-05,2e-05,-1e-05,-0.00064,-3e-05,-3e-05,2,11.0
4820,-6e-05,-2e-05,-3e-05,2e-05,-1e-05,-0.00064,-3e-05,-3e-05,2,11.0
4821,-6e-05,-2e-05,-3e-05,2e-05,-1e-05,-0.00064,-3e-05,-3e-05,2,11.0
4822,-6e-05,-2e-05,-3e-05,2e-05,-1e-05,-0.00064,-3e-05,-3e-05,2,11.0
4823,1e-05,4e-05,2e-05,-9e-05,-3e-05,0.00017,-0.0001,-3e-05,2,11.0
4824,-0.0001,-0.00013,-0.00037,-0.00021,0.00028,0.00048,2e-05,2e-05,2,11.0
4825,-0.0001,-0.00013,-0.00037,-0.00021,0.00028,0.00048,2e-05,2e-05,2,11.0
4826,-0.0001,-0.00013,-0.00037,-0.00021,0.00028,0.00048,2e-05,2e-05,2,11.0
4827,-0.0001,-0.00013,-0.00037,-0.00021,0.00028,0.00048,2e-05,2e-05,2,11.0
4828,-0.0001,-0.00013,-0.00037,-0.00021,0.00028,0.00048,2e-05,2e-05,2,11.0
4829,-0.0001,-0.00013,-0.00037,-0.00021,0.00028,0.00048,2e-05,2e-05,2,11.0
4830,-0.0001,-0.00013,-0.00037,-0.00021,0.00028,0.00048,2e-05,2e-05,2,11.0
4831,-0.0001,-0.00013,-0.00037,-0.00021,0.00028,0.00048,2e-05,2e-05,2,11.0
4832,-0.0001,-0.00013,-0.00037,-0.00021,0.00028,0.00048,2e-05,2e-05,2,11.0
4833,-0.0001,-0.00013,-0.00037,-0.00021,0.00028,0.00048,2e-05,2e-05,2,11.0
4834,-0.0001,-0.00013,-0.00037,-0.00021,0.00028,0.00048,2e-05,2e-05,2,11.0
4835,-0.0001,-0.00013,-0.00037,-0.00021,0.00028,0.00048,2e-05,2e-05,2,11.0
4836,-0.0001,-0.00013,-0.00037,-0.00021,0.00028,0.00048,2e-05,2e-05,2,11.0
4838,-0.0001,-0.00013,-0.00037,-0.00021,0.00028,0.00048,2e-05,2e-05,2,11.0
4839,-0.0001,-0.00013,-0.00037,-0.00021,0.00028,0.00048,2e-05,2e-05,2,11.0
4840,-0.0001,-0.00013,-0.00037,-0.00021,0.00028,0.00048,2e-05,2e-05,2,11.0
4841,-0.0001,-0.00013,-0.00037,-0.00021,0.00028,0.00048,2e-05,2e-05,2,11.0
4842,-0.0001,-0.00013,-0.00037,-0.00021,0.00028,0.00048,2e-05,2e-05,2,11.0
4843,-0.0001,-0.00013,-0.00037,-0.00021,0.00028,0.00048,2e-05,2e-05,2,11.0
4844,-0.0001,-0.00013,-0.00037,-0.00021,0.00028,0.00048,2e-05,2e-05,2,11.0
4845,-0.0001,-0.00013,-0.00037,-0.00021,0.00028,0.00048,2e-05,2e-05,2,11.0
4846,1e-05,6e-05,0.00012,0.00026,0.00024,0.00085,0.00029,6e-05,2,11.0
4847,-1e-05,-7e-05,-8e-05,-0.00012,-1e-05,0.00049,0.00023,-2e-05,2,11.0
4848,-1e-05,-7e-05,-8e-05,-0.00012,-1e-05,0.00049,0.00023,-2e-05,2,11.0
4849,-1e-05,-7e-05,-8e-05,-0.00012,-1e-05,0.00049,0.00023,-2e-05,2,11.0
4850,-1e-05,-7e-05,-8e-05,-0.00012,-1e-05,0.00049,0.00023,-2e-05,2,11.0
4851,-1e-05,-7e-05,-8e-05,-0.00012,-1e-05,0.00049,0.00023,-2e-05,2,11.0
4852,-1e-05,-7e-05,-8e-05,-0.00012,-1e-05,0.00049,0.00023,-2e-05,2,11.0
4853,-1e-05,-7e-05,-8e-05,-0.00012,-1e-05,0.00049,0.00023,-2e-05,2,11.0
4854,-1e-05,-7e-05,-8e-05,-0.00012,-1e-05,0.00049,0.00023,-2e-05,2,11.0
4855,-1e-05,-7e-05,-8e-05,-0.00012,-1e-05,0.00049,0.00023,-2e-05,2,11.0
4856,-1e-05,-7e-05,-8e-05,-0.00012,-1e-05,0.00049,0.00023,-2e-05,2,11.0
4857,-1e-05,-7e-05,-8e-05,-0.00012,-1e-05,0.00049,0.00023,-2e-05,2,11.0
4858,-1e-05,-7e-05,-8e-05,-0.00012,-1e-05,0.00049,0.00023,-2e-05,2,11.0
4859,-1e-05,-7e-05,-8e-05,-0.00012,-1e-05,0.00049,0.00023,-2e-05,2,11.0
4860,-8e-05,-5e-05,-4e-05,3e-05,5e-05,-0.00036,-6e-05,-3e-05,2,11.0
4861,-8e-05,-5e-05,-4e-05,3e-05,5e-05,-0.00036,-6e-05,-3e-05,2,11.0
4862,-8e-05,-5e-05,-4e-05,3e-05,5e-05,-0.00036,-6e-05,-3e-05,2,11.0
4863,-8e-05,-5e-05,-4e-05,3e-05,5e-05,-0.00036,-6e-05,-3e-05,2,11.0
4864,-8e-05,-5e-05,-4e-05,3e-05,5e-05,-0.00036,-6e-05,-3e-05,2,11.0
4865,-8e-05,-5e-05,-4e-05,3e-05,5e-05,-0.00036,-6e-05,-3e-05,2,11.0
4866,-8e-05,-5e-05,-4e-05,3e-05,5e-05,-0.00036,-6e-05,-3e-05,2,11.0
4867,-8e-05,-5e-05,-4e-05,3e-05,5e-05,-0.00036,-6e-05,-3e-05,2,11.0
4868,2e-05,0.00012,0.00017,0.00011,0.0003,-0.00035,0.00023,5e-05,2,11.0
4869,2e-05,0.00012,0.00017,0.00011,0.0003,-0.00035,0.00023,5e-05,2,11.0
4870,2e-05,0.00012,0.00017,0.00011,0.0003,-0.00035,0.00023,5e-05,2,11.0
4871,2e-05,0.00012,0.00017,0.00011,0.0003,-0.00035,0.00023,5e-05,2,11.0
4872,2e-05,0.00012,0.00017,0.00011,0.0003,-0.00035,0.00023,5e-05,2,11.0
4873,2e-05,0.00012,0.00017,0.00011,0.0003,-0.00035,0.00023,5e-05,2,11.0
4874,2e-05,0.00012,0.00017,0.00011,0.0003,-0.00035,0.00023,5e-05,2,11.0
4875,2e-05,0.00012,0.00017,0.00011,0.0003,-0.00035,0.00023,5e-05,2,11.0
4876,2e-05,0.00012,0.00017,0.00011,0.0003,-0.00035,0.00023,5e-05,2,11.0
4877,2e-05,0.00012,0.00017,0.00011,0.0003,-0.00035,0.00023,5e-05,2,11.0
4878,2e-05,0.00012,0.00017,0.00011,0.0003,-0.00035,0.00023,5e-05,2,11.0
4879,2e-05,0.00012,0.00017,0.00011,0.0003,-0.00035,0.00023,5e-05,2,11.0
4880,2e-05,0.00012,0.00017,0.00011,0.0003,-0.00035,0.00023,5e-05,2,11.0
4881,2e-05,0.00012,0.00017,0.00011,0.0003,-0.00035,0.00023,5e-05,2,11.0
4882,2e-05,0.00012,0.00017,0.00011,0.0003,-0.00035,0.00023,5e-05,2,11.0
4883,9e-05,4e-05,0.00015,-0.00015,-0.00027,-0.0005,-0.00044,1e-05,2,11.0
4884,-5e-05,-3e-05,-0.00017,-7e-05,-8e-05,0.00011,-0.00032,-7e-05,2,11.0
4885,-5e-05,-3e-05,-0.00017,-7e-05,-8e-05,0.00011,-0.00032,-7e-05,2,11.0
4886,-5e-05,-3e-05,-0.00017,-7e-05,-8e-05,0.00011,-0.00032,-7e-05,2,11.0
4888,-5e-05,-3e-05,-0.00017,-7e-05,-8e-05,0.00011,-0.00032,-7e-05,2,11.0
4889,-5e-05,-3e-05,-0.00017,-7e-05,-8e-05,0.00011,-0.00032,-7e-05,2,11.0
4890,-5e-05,-3e-05,-0.00017,-7e-05,-8e-05,0.00011,-0.00032,-7e-05,2,11.0
4891,-5e-05,-3e-05,-0.00017,-7e-05,-8e-05,0.00011,-0.00032,-7e-05,2,11.0
4892,-5e-05,-3e-05,-0.00017,-7e-05,-8e-05,0.00011,-0.00032,-7e-05,2,11.0
4893,-5e-05,-3e-05,-0.00017,-7e-05,-8e-05,0.00011,-0.00032,-7e-05,2,11.0
4894,-5e-05,-3e-05,-0.00017,-7e-05,-8e-05,0.00011,-0.00032,-7e-05,2,11.0
4895,-5e-05,-3e-05,-0.00017,-7e-05,-8e-05,0.00011,-0.00032,-7e-05,2,11.0
4896,-5e-05,-3e-05,-0.00017,-7e-05,-8e-05,0.00011,-0.00032,-7e-05,2,11.0
4897,-5e-05,-3e-05,-0.00017,-7e-05,-8e-05,0.00011,-0.00032,-7e-05,2,11.0
4898,-5e-05,-3e-05,-0.00017,-7e-05,-8e-05,0.00011,-0.00032,-7e-05,2,11.0
4899,-5e-05,-3e-05,-0.00017,-7e-05,-8e-05,0.00011,-0.00032,-7e-05,2,11.0
4900,-5e-05,-3e-05,-0.00017,-7e-05,-8e-05,0.00011,-0.00032,-7e-05,2,11.0
4901,-5e-05,-3e-05,-0.00017,-7e-05,-8e-05,0.00011,-0.00032,-7e-05,2,11.0
4902,-5e-05,-3e-05,-0.00017,-7e-05,-8e-05,0.00011,-0.00032,-7e-05,2,11.0
4903,-5e-05,-3e-05,-0.00017,-7e-05,-8e-05,0.00011,-0.00032,-7e-05,2,11.0
4904,-5e-05,-3e-05,-0.00017,-7e-05,-8e-05,0.00011,-0.00032,-7e-05,2,11.0
4905,-5e-05,-3e-05,-0.00017,-7e-05,-8e-05,0.00011,-0.00032,-7e-05,2,11.0
4906,0.0,8e-05,0.00015,0.00021,-0.00037,-0.00054,-0.0001,-8e-05,2,11.0
4907,-2e-05,-4e-05,3e-05,-0.00013,-3e-05,0.00015,-6e-05,-1e-05,2,11.0
4908,-2e-05,-4e-05,3e-05,-0.00013,-3e-05,0.00015,-6e-05,-1e-05,2,11.0
4909,-2e-05,-4e-05,3e-05,-0.00013,-3e-05,0.00015,-6e-05,-1e-05,2,11.0
4910,-2e-05,-4e-05,3e-05,-0.00013,-3e-05,0.00015,-6e-05,-1e-05,2,11.0
4911,-2e-05,-4e-05,3e-05,-0.00013,-3e-05,0.00015,-6e-05,-1e-05,2,11.0
4912,-2e-05,-4e-05,3e-05,-0.00013,-3e-05,0.00015,-6e-05,-1e-05,2,11.0
4913,-2e-05,-4e-05,3e-05,-0.00013,-3e-05,0.00015,-6e-05,-1e-05,2,11.0
4914,-2e-05,-4e-05,3e-05,-0.00013,-3e-05,0.00015,-6e-05,-1e-05,2,11.0
4915,-2e-05,-4e-05,3e-05,-0.00013,-3e-05,0.00015,-6e-05,-1e-05,2,11.0
4916,-2e-05,-4e-05,3e-05,-0.00013,-3e-05,0.00015,-6e-05,-1e-05,2,11.0
4917,-2e-05,-4e-05,3e-05,-0.00013,-3e-05,0.00015,-6e-05,-1e-05,2,11.0
4918,-2e-05,-4e-05,3e-05,-0.00013,-3e-05,0.00015,-6e-05,-1e-05,2,11.0
4919,-2e-05,-4e-05,3e-05,-0.00013,-3e-05,0.00015,-6e-05,-1e-05,2,11.0
4920,-2e-05,-4e-05,3e-05,-0.00013,-3e-05,0.00015,-6e-05,-1e-05,2,11.0
4921,-2e-05,-4e-05,3e-05,-0.00013,-3e-05,0.00015,-6e-05,-1e-05,2,11.0
4922,-2e-05,-4e-05,3e-05,-0.00013,-3e-05,0.00015,-6e-05,-1e-05,2,11.0
4923,-2e-05,-4e-05,3e-05,-0.00013,-3e-05,0.00015,-6e-05,-1e-05,2,11.0
4924,-2e-05,-4e-05,3e-05,-0.00013,-3e-05,0.00015,-6e-05,-1e-05,2,11.0
4925,-2e-05,-4e-05,3e-05,-0.00013,-3e-05,0.00015,-6e-05,-1e-05,2,11.0
4926,-2e-05,-4e-05,3e-05,-0.00013,-3e-05,0.00015,-6e-05,-1e-05,2,11.0
4927,-2e-05,-4e-05,3e-05,-0.00013,-3e-05,0.00015,-6e-05,-1e-05,2,11.0
4928,-2e-05,-4e-05,3e-05,-0.00013,-3e-05,0.00015,-6e-05,-1e-05,2,11.0
4929,2e-05,3e-05,0.00013,-0.00023,-1e-05,0.0002,0.0,4e-05,2,11.0
4930,2e-05,3e-05,0.00013,-0.00023,-1e-05,0.0002,0.0,4e-05,2,11.0
4931,2e-05,3e-05,0.00013,-0.00023,-1e-05,0.0002,0.0,4e-05,2,11.0
4932,2e-05,3e-05,0.00013,-0.00023,-1e-05,0.0002,0.0,4e-05,2,11.0
4933,2e-05,3e-05,0.00013,-0.00023,-1e-05,0.0002,0.0,4e-05,2,11.0
4934,2e-05,3e-05,0.00013,-0.00023,-1e-05,0.0002,0.0,4e-05,2,11.0
4935,2e-05,3e-05,0.00013,-0.00023,-1e-05,0.0002,0.0,4e-05,2,11.0
4936,2e-05,3e-05,0.00013,-0.00023,-1e-05,0.0002,0.0,4e-05,2,11.0
4938,2e-05,3e-05,0.00013,-0.00023,-1e-05,0.0002,0.0,4e-05,2,11.0
4939,2e-05,3e-05,0.00013,-0.00023,-1e-05,0.0002,0.0,4e-05,2,11.0
4940,2e-05,3e-05,0.00013,-0.00023,-1e-05,0.0002,0.0,4e-05,2,11.0
4941,2e-05,3e-05,0.00013,-0.00023,-1e-05,0.0002,0.0,4e-05,2,11.0
4942,2e-05,3e-05,0.00013,-0.00023,-1e-05,0.0002,0.0,4e-05,2,11.0
4943,-5e-05,-0.0001,-0.00011,4e-05,3e-05,-0.00013,7e-05,7e-05,2,11.0
4944,4e-05,5e-05,2e-05,8e-05,-5e-05,0.0005,0.00019,0.00011,2,11.0
4945,4e-05,5e-05,2e-05,8e-05,-5e-05,0.0005,0.00019,0.00011,2,11.0
4946,4e-05,5e-05,2e-05,8e-05,-5e-05,0.0005,0.00019,0.00011,2,11.0
4947,4e-05,5e-05,2e-05,8e-05,-5e-05,0.0005,0.00019,0.00011,2,11.0
4948,4e-05,5e-05,2e-05,8e-05,-5e-05,0.0005,0.00019,0.00011,2,11.0
4949,4e-05,5e-05,2e-05,8e-05,-5e-05,0.0005,0.00019,0.00011,2,11.0
4950,4e-05,5e-05,2e-05,8e-05,-5e-05,0.0005,0.00019,0.00011,2,11.0
4951,4e-05,5e-05,2e-05,8e-05,-5e-05,0.0005,0.00019,0.00011,2,11.0
4952,4e-05,5e-05,2e-05,8e-05,-5e-05,0.0005,0.00019,0.00011,2,11.0
4953,4e-05,5e-05,2e-05,8e-05,-5e-05,0.0005,0.00019,0.00011,2,11.0
4954,4e-05,5e-05,2e-05,8e-05,-5e-05,0.0005,0.00019,0.00011,2,11.0
4955,4e-05,5e-05,2e-05,8e-05,-5e-05,0.0005,0.00019,0.00011,2,11.0
4956,4e-05,5e-05,2e-05,8e-05,-5e-05,0.0005,0.00019,0.00011,2,11.0
4957,4e-05,5e-05,2e-05,8e-05,-5e-05,0.0005,0.00019,0.00011,2,11.0
4958,4e-05,5e-05,2e-05,8e-05,-5e-05,0.0005,0.00019,0.00011,2,11.0
4959,4e-05,5e-05,2e-05,8e-05,-5e-05,0.0005,0.00019,0.00011,2,11.0
4960,4e-05,5e-05,2e-05,8e-05,-5e-05,0.0005,0.00019,0.00011,2,11.0
4961,4e-05,5e-05,2e-05,8e-05,-5e-05,0.0005,0.00019,0.00011,2,11.0
4962,4e-05,5e-05,2e-05,8e-05,-5e-05,0.0005,0.00019,0.00011,2,11.0
4963,4e-05,5e-05,2e-05,8e-05,-5e-05,0.0005,0.00019,0.00011,2,11.0
4964,4e-05,5e-05,2e-05,8e-05,-5e-05,0.0005,0.00019,0.00011,2,11.0
4965,4e-05,5e-05,2e-05,8e-05,-5e-05,0.0005,0.00019,0.00011,2,11.0
4966,1e-05,1e-05,-8e-05,-9e-05,1e-05,-0.00069,-0.00031,-2e-05,2,11.0
4967,3e-05,2e-05,2e-05,0.00022,-3e-05,0.00035,4e-05,3e-05,2,11.0
4968,3e-05,2e-05,2e-05,0.00022,-3e-05,0.00035,4e-05,3e-05,2,11.0
4969,3e-05,2e-05,2e-05,0.00022,-3e-05,0.00035,4e-05,3e-05,2,11.0
4970,3e-05,2e-05,2e-05,0.00022,-3e-05,0.00035,4e-05,3e-05,2,11.0
4971,3e-05,2e-05,2e-05,0.00022,-3e-05,0.00035,4e-05,3e-05,2,11.0
4972,3e-05,2e-05,2e-05,0.00022,-3e-05,0.00035,4e-05,3e-05,2,11.0
4973,3e-05,2e-05,2e-05,0.00022,-3e-05,0.00035,4e-05,3e-05,2,11.0
4974,3e-05,2e-05,2e-05,0.00022,-3e-05,0.00035,4e-05,3e-05,2,11.0
4975,3e-05,2e-05,2e-05,0.00022,-3e-05,0.00035,4e-05,3e-05,2,11.0
4976,3e-05,2e-05,2e-05,0.00022,-3e-05,0.00035,4e-05,3e-05,2,11.0
4977,3e-05,2e-05,2e-05,0.00022,-3e-05,0.00035,4e-05,3e-05,2,11.0
4978,3e-05,2e-05,2e-05,0.00022,-3e-05,0.00035,4e-05,3e-05,2,11.0
4979,3e-05,2e-05,2e-05,0.00022,-3e-05,0.00035,4e-05,3e-05,2,11.0
4980,3e-05,2e-05,2e-05,0.00022,-3e-05,0.00035,4e-05,3e-05,2,11.0
4981,3e-05,2e-05,2e-05,0.00022,-3e-05,0.00035,4e-05,3e-05,2,11.0
4982,3e-05,2e-05,2e-05,0.00022,-3e-05,0.00035,4e-05,3e-05,2,11.0
4983,3e-05,2e-05,2e-05,0.00022,-3e-05,0.00035,4e-05,3e-05,2,11.0
4984,3e-05,2e-05,2e-05,0.00022,-3e-05,0.00035,4e-05,3e-05,2,11.0
4985,3e-05,2e-05,2e-05,0.00022,-3e-05,0.00035,4e-05,3e-05,2,11.0
4986,3e-05,2e-05,2e-05,0.00022,-3e-05,0.00035,4e-05,3e-05,2,11.0
4988,3e-05,2e-05,2e-05,0.00022,-3e-05,0.00035,4e-05,3e-05,2,11.0
4989,3e-05,2e-05,2e-05,0.00022,-3e-05,0.00035,4e-05,3e-05,2,11.0
4990,3e-05,2e-05,2e-05,0.00022,-3e-05,0.00035,4e-05,3e-05,2,11.0
4991,3e-05,2e-05,2e-05,0.00022,-3e-05,0.00035,4e-05,3e-05,2,11.0
4992,3e-05,2e-05,2e-05,0.00022,-3e-05,0.00035,4e-05,3e-05,2,11.0
4993,3e-05,2e-05,2e-05,0.00022,-3e-05,0.00035,4e-05,3e-05,2,11.0
4994,3e-05,2e-05,2e-05,0.00022,-3e-05,0.00035,4e-05,3e-05,2,11.0
4995,3e-05,2e-05,2e-05,0.00022,-3e-05,0.00035,4e-05,3e-05,2,11.0
4996,0.0001,3e-05,-4e-05,0.0001,-9e-05,0.00041,0.00019,0.00013,2,11.0
4997,-7e-05,-2e-05,-4e-05,2e-05,3e-05,0.0002,0.0001,-8e-05,2,11.0
4998,-7e-05,-2e-05,-4e-05,2e-05,3e-05,0.0002,0.0001,-8e-05,2,11.0
4999,-7e-05,-2e-05,-4e-05,2e-05,3e-05,0.0002,0.0001,-8e-05,2,11.0
5000,-7e-05,-2e-05,-4e-05,2e-05,3e-05,0.0002,0.0001,-8e-05,2,11.0
5001,-7e-05,-2e-05,-4e-05,2e-05,3e-05,0.0002,0.0001,-8e-05,2,11.0
5002,-7e-05,-2e-05,-4e-05,2e-05,3e-05,0.0002,0.0001,-8e-05,2,11.0
5003,1e-05,-4e-05,0.00013,0.0002,-0.00017,-0.00056,-0.00027,-9e-05,2,11.0
5004,0.0,-6e-05,-0.00025,-0.00026,0.00019,0.00022,0.00024,3e-05,2,11.0
5005,0.0,-6e-05,-0.00025,-0.00026,0.00019,0.00022,0.00024,3e-05,2,11.0
5006,0.0,-6e-05,-0.00025,-0.00026,0.00019,0.00022,0.00024,3e-05,2,11.0
5007,0.0,-6e-05,-0.00025,-0.00026,0.00019,0.00022,0.00024,3e-05,2,11.0
5008,0.0,-6e-05,-0.00025,-0.00026,0.00019,0.00022,0.00024,3e-05,2,11.0
5009,0.0,-6e-05,-0.00025,-0.00026,0.00019,0.00022,0.00024,3e-05,2,11.0
5010,0.0,-6e-05,-0.00025,-0.00026,0.00019,0.00022,0.00024,3e-05,2,11.0
5011,0.0,-6e-05,-0.00025,-0.00026,0.00019,0.00022,0.00024,3e-05,2,11.0
5012,0.0,-6e-05,-0.00025,-0.00026,0.00019,0.00022,0.00024,3e-05,2,11.0
5013,0.0,-6e-05,-0.00025,-0.00026,0.00019,0.00022,0.00024,3e-05,2,11.0
5014,0.0,-6e-05,-0.00025,-0.00026,0.00019,0.00022,0.00024,3e-05,2,11.0
5015,0.0,-6e-05,-0.00025,-0.00026,0.00019,0.00022,0.00024,3e-05,2,11.0
5016,0.0,-6e-05,-0.00025,-0.00026,0.00019,0.00022,0.00024,3e-05,2,11.0
5017,0.0,-6e-05,-0.00025,-0.00026,0.00019,0.00022,0.00024,3e-05,2,11.0
5018,0.0,-6e-05,-0.00025,-0.00026,0.00019,0.00022,0.00024,3e-05,2,11.0
5019,0.0,-6e-05,-0.00025,-0.00026,0.00019,0.00022,0.00024,3e-05,2,11.0
5020,0.0,-6e-05,-0.00025,-0.00026,0.00019,0.00022,0.00024,3e-05,2,11.0
5021,0.0,-6e-05,-0.00025,-0.00026,0.00019,0.00022,0.00024,3e-05,2,11.0
5022,0.0,-6e-05,-0.00025,-0.00026,0.00019,0.00022,0.00024,3e-05,2,11.0
5023,0.0,-6e-05,-0.00025,-0.00026,0.00019,0.00022,0.00024,3e-05,2,11.0
5024,0.0,-6e-05,-0.00025,-0.00026,0.00019,0.00022,0.00024,3e-05,2,11.0
5025,0.0,-6e-05,-0.00025,-0.00026,0.00019,0.00022,0.00024,3e-05,2,11.0
5026,-1e-05,-2e-05,-8e-05,-3e-05,-5e-05,-0.00017,0.00011,-8e-05,2,11.0
5027,-2e-05,-4e-05,2e-05,0.00015,-0.00015,-0.00085,-0.00029,-0.00013,2,11.0
5028,-2e-05,-4e-05,2e-05,0.00015,-0.00015,-0.00085,-0.00029,-0.00013,2,11.0
5029,-2e-05,-4e-05,2e-05,0.00015,-0.00015,-0.00085,-0.00029,-0.00013,2,11.0
5030,-2e-05,-4e-05,2e-05,0.00015,-0.00015,-0.00085,-0.00029,-0.00013,2,11.0
5031,-2e-05,-4e-05,2e-05,0.00015,-0.00015,-0.00085,-0.00029,-0.00013,2,11.0
5033,-2e-05,-4e-05,2e-05,0.00015,-0.00015,-0.00085,-0.00029,-0.00013,2,11.0
5034,-2e-05,-4e-05,2e-05,0.00015,-0.00015,-0.00085,-0.00029,-0.00013,2,11.0
5035,-2e-05,-4e-05,2e-05,0.00015,-0.00015,-0.00085,-0.00029,-0.00013,2,11.0
5036,-2e-05,-4e-05,2e-05,0.00015,-0.00015,-0.00085,-0.00029,-0.00013,2,11.0
5038,-2e-05,-4e-05,2e-05,0.00015,-0.00015,-0.00085,-0.00029,-0.00013,2,11.0
5039,-2e-05,-4e-05,2e-05,0.00015,-0.00015,-0.00085,-0.00029,-0.00013,2,11.0
5040,-2e-05,-4e-05,2e-05,0.00015,-0.00015,-0.00085,-0.00029,-0.00013,2,11.0
5041,-2e-05,-4e-05,2e-05,0.00015,-0.00015,-0.00085,-0.00029,-0.00013,2,11.0
5042,-2e-05,-4e-05,2e-05,0.00015,-0.00015,-0.00085,-0.00029,-0.00013,2,11.0
5043,-2e-05,-4e-05,2e-05,0.00015,-0.00015,-0.00085,-0.00029,-0.00013,2,11.0
5044,-2e-05,-4e-05,2e-05,0.00015,-0.00015,-0.00085,-0.00029,-0.00013,2,11.0
5045,-2e-05,-4e-05,2e-05,0.00015,-0.00015,-0.00085,-0.00029,-0.00013,2,11.0
5046,-2e-05,-4e-05,2e-05,0.00015,-0.00015,-0.00085,-0.00029,-0.00013,2,11.0
5047,-2e-05,-4e-05,2e-05,0.00015,-0.00015,-0.00085,-0.00029,-0.00013,2,11.0
5048,-2e-05,-4e-05,2e-05,0.00015,-0.00015,-0.00085,-0.00029,-0.00013,2,11.0
5049,1e-05,1e-05,-3e-05,-0.00011,8e-05,6e-05,-1e-05,2e-05,2,11.0
5050,-6e-05,1e-05,3e-05,-3e-05,-0.00018,-0.0005,-0.00026,-3e-05,2,11.0
5052,-6e-05,1e-05,3e-05,-3e-05,-0.00018,-0.0005,-0.00026,-3e-05,2,11.0
5053,-6e-05,1e-05,3e-05,-3e-05,-0.00018,-0.0005,-0.00026,-3e-05,2,11.0
5054,-6e-05,1e-05,3e-05,-3e-05,-0.00018,-0.0005,-0.00026,-3e-05,2,11.0
5055,-6e-05,1e-05,3e-05,-3e-05,-0.00018,-0.0005,-0.00026,-3e-05,2,11.0
5056,-6e-05,1e-05,3e-05,-3e-05,-0.00018,-0.0005,-0.00026,-3e-05,2,11.0
5057,-6e-05,1e-05,3e-05,-3e-05,-0.00018,-0.0005,-0.00026,-3e-05,2,11.0
5058,-6e-05,1e-05,3e-05,-3e-05,-0.00018,-0.0005,-0.00026,-3e-05,2,11.0
5059,-6e-05,1e-05,3e-05,-3e-05,-0.00018,-0.0005,-0.00026,-3e-05,2,11.0
5060,-6e-05,1e-05,3e-05,-3e-05,-0.00018,-0.0005,-0.00026,-3e-05,2,11.0
5061,-6e-05,1e-05,3e-05,-3e-05,-0.00018,-0.0005,-0.00026,-3e-05,2,11.0
5062,-6e-05,1e-05,3e-05,-3e-05,-0.00018,-0.0005,-0.00026,-3e-05,2,11.0
5063,-2e-05,0.0,-2e-05,-1e-05,0.0001,0.00062,0.00012,-1e-05,2,11.0
5064,-3e-05,-3e-05,7e-05,0.00019,0.00021,-2e-05,-0.00017,-3e-05,2,11.0
5065,-3e-05,-3e-05,7e-05,0.00019,0.00021,-2e-05,-0.00017,-3e-05,2,11.0
5066,-3e-05,-3e-05,7e-05,0.00019,0.00021,-2e-05,-0.00017,-3e-05,2,11.0
5067,-3e-05,-3e-05,7e-05,0.00019,0.00021,-2e-05,-0.00017,-3e-05,2,11.0
5068,-3e-05,-3e-05,7e-05,0.00019,0.00021,-2e-05,-0.00017,-3e-05,2,11.0
5069,-3e-05,-3e-05,7e-05,0.00019,0.00021,-2e-05,-0.00017,-3e-05,2,11.0
5070,-3e-05,-3e-05,7e-05,0.00019,0.00021,-2e-05,-0.00017,-3e-05,2,11.0
5071,-3e-05,-3e-05,7e-05,0.00019,0.00021,-2e-05,-0.00017,-3e-05,2,11.0
5072,-3e-05,-3e-05,7e-05,0.00019,0.00021,-2e-05,-0.00017,-3e-05,2,11.0
5073,-3e-05,-3e-05,7e-05,0.00019,0.00021,-2e-05,-0.00017,-3e-05,2,11.0
5074,-3e-05,-3e-05,7e-05,0.00019,0.00021,-2e-05,-0.00017,-3e-05,2,11.0
