time,channel1,channel2,channel3,channel4,channel5,channel6,channel7,channel8,class,label
1976,-2e-05,1e-05,-1e-05,-3e-05,0.0001,1e-05,-1e-05,-1e-05,1,14.0
1977,-2e-05,1e-05,-1e-05,-3e-05,0.0001,1e-05,-1e-05,-1e-05,1,14.0
1978,-2e-05,1e-05,-1e-05,-3e-05,0.0001,1e-05,-1e-05,-1e-05,1,14.0
1979,-2e-05,1e-05,-1e-05,-3e-05,0.0001,1e-05,-1e-05,-1e-05,1,14.0
1980,-2e-05,1e-05,-1e-05,-3e-05,0.0001,1e-05,-1e-05,-1e-05,1,14.0
1981,-2e-05,1e-05,-1e-05,-3e-05,0.0001,1e-05,-1e-05,-1e-05,1,14.0
1982,-2e-05,1e-05,-1e-05,-3e-05,0.0001,1e-05,-1e-05,-1e-05,1,14.0
1983,-2e-05,1e-05,-1e-05,-3e-05,0.0001,1e-05,-1e-05,-1e-05,1,14.0
1984,-2e-05,1e-05,-1e-05,-3e-05,0.0001,1e-05,-1e-05,-1e-05,1,14.0
1985,-2e-05,1e-05,-1e-05,-3e-05,0.0001,1e-05,-1e-05,-1e-05,1,14.0
1986,-2e-05,1e-05,-1e-05,-3e-05,0.0001,1e-05,-1e-05,-1e-05,1,14.0
1988,1e-05,-1e-05,-4e-05,4e-05,-0.00012,2e-05,-1e-05,0.0,1,14.0
1989,-2e-05,-2e-05,-1e-05,-1e-05,-0.00062,-6e-05,0.0,0.0,1,14.0
1990,-2e-05,-2e-05,-1e-05,-1e-05,-0.00062,-6e-05,0.0,0.0,1,14.0
1991,-2e-05,-2e-05,-1e-05,-1e-05,-0.00062,-6e-05,0.0,0.0,1,14.0
1992,-2e-05,-2e-05,-1e-05,-1e-05,-0.00062,-6e-05,0.0,0.0,1,14.0
1993,-2e-05,-2e-05,-1e-05,-1e-05,-0.00062,-6e-05,0.0,0.0,1,14.0
1994,-2e-05,-2e-05,-1e-05,-1e-05,-0.00062,-6e-05,0.0,0.0,1,14.0
1995,-2e-05,-2e-05,-1e-05,-1e-05,-0.00062,-6e-05,0.0,0.0,1,14.0
1996,-2e-05,-2e-05,-1e-05,-1e-05,-0.00062,-6e-05,0.0,0.0,1,14.0
1997,-2e-05,-2e-05,-1e-05,-1e-05,-0.00062,-6e-05,0.0,0.0,1,14.0
1998,-2e-05,-2e-05,-1e-05,-1e-05,-0.00062,-6e-05,0.0,0.0,1,14.0
1999,-2e-05,-2e-05,-1e-05,-1e-05,-0.00062,-6e-05,0.0,0.0,1,14.0
2000,-2e-05,-2e-05,-1e-05,-1e-05,-0.00062,-6e-05,0.0,0.0,1,14.0
2001,-2e-05,-2e-05,-1e-05,-1e-05,-0.00062,-6e-05,0.0,0.0,1,14.0
2002,-2e-05,-2e-05,-1e-05,-1e-05,-0.00062,-6e-05,0.0,0.0,1,14.0
2003,-2e-05,-2e-05,-1e-05,-1e-05,-0.00062,-6e-05,0.0,0.0,1,14.0
2004,-2e-05,-2e-05,-1e-05,-1e-05,-0.00062,-6e-05,0.0,0.0,1,14.0
2005,-2e-05,-2e-05,-1e-05,-1e-05,-0.00062,-6e-05,0.0,0.0,1,14.0
2006,-2e-05,-2e-05,-1e-05,-1e-05,-0.00062,-6e-05,0.0,0.0,1,14.0
2007,-2e-05,-2e-05,-1e-05,-1e-05,-0.00062,-6e-05,0.0,0.0,1,14.0
2008,-2e-05,-2e-05,-1e-05,-1e-05,-0.00062,-6e-05,0.0,0.0,1,14.0
2009,-2e-05,-2e-05,-1e-05,-1e-05,-0.00062,-6e-05,0.0,0.0,1,14.0
2010,-2e-05,-2e-05,-1e-05,-1e-05,-0.00062,-6e-05,0.0,0.0,1,14.0
2011,-2e-05,-2e-05,-1e-05,-1e-05,-0.00062,-6e-05,0.0,0.0,1,14.0
2012,-2e-05,-2e-05,-1e-05,-1e-05,-0.00062,-6e-05,0.0,0.0,1,14.0
2013,-2e-05,-2e-05,-1e-05,-1e-05,-0.00062,-6e-05,0.0,0.0,1,14.0
2014,-2e-05,-2e-05,-1e-05,-1e-05,-0.00062,-6e-05,0.0,0.0,1,14.0
2015,-2e-05,-2e-05,-1e-05,-1e-05,-0.00062,-6e-05,0.0,0.0,1,14.0
2016,-2e-05,-2e-05,-1e-05,-1e-05,-0.00062,-6e-05,0.0,0.0,1,14.0
2017,-1e-05,-2e-05,0.0,6e-05,-5e-05,-2e-05,0.0,0.0,1,14.0
2018,-1e-05,0.0,-1e-05,-1e-05,0.00015,0.0,-2e-05,-2e-05,1,14.0
2019,0.0,1e-05,3e-05,-2e-05,-0.00016,0.0,-2e-05,-1e-05,1,14.0
2020,0.0,1e-05,3e-05,-2e-05,-0.00016,0.0,-2e-05,-1e-05,1,14.0
2021,0.0,1e-05,3e-05,-2e-05,-0.00016,0.0,-2e-05,-1e-05,1,14.0
2022,0.0,1e-05,3e-05,-2e-05,-0.00016,0.0,-2e-05,-1e-05,1,14.0
2023,0.0,1e-05,3e-05,-2e-05,-0.00016,0.0,-2e-05,-1e-05,1,14.0
2024,0.0,1e-05,3e-05,-2e-05,-0.00016,0.0,-2e-05,-1e-05,1,14.0
2025,0.0,-2e-05,-3e-05,2e-05,-0.0001,-2e-05,-2e-05,-1e-05,1,14.0
2026,-2e-05,-1e-05,-3e-05,4e-05,-6e-05,1e-05,0.0,1e-05,1,14.0
2027,-2e-05,-1e-05,-3e-05,4e-05,-6e-05,1e-05,0.0,1e-05,1,14.0
2028,-2e-05,-1e-05,-3e-05,4e-05,-6e-05,1e-05,0.0,1e-05,1,14.0
2029,-2e-05,-1e-05,-3e-05,4e-05,-6e-05,1e-05,0.0,1e-05,1,14.0
2030,-2e-05,-1e-05,-3e-05,4e-05,-6e-05,1e-05,0.0,1e-05,1,14.0
2031,-2e-05,-1e-05,-3e-05,4e-05,-6e-05,1e-05,0.0,1e-05,1,14.0
2032,-2e-05,-1e-05,-3e-05,4e-05,-6e-05,1e-05,0.0,1e-05,1,14.0
2033,-2e-05,-1e-05,-3e-05,4e-05,-6e-05,1e-05,0.0,1e-05,1,14.0
2034,-2e-05,-1e-05,-3e-05,4e-05,-6e-05,1e-05,0.0,1e-05,1,14.0
2035,-2e-05,-1e-05,-3e-05,4e-05,-6e-05,1e-05,0.0,1e-05,1,14.0
2036,-2e-05,-1e-05,-3e-05,4e-05,-6e-05,1e-05,0.0,1e-05,1,14.0
2038,-2e-05,-1e-05,-3e-05,4e-05,-6e-05,1e-05,0.0,1e-05,1,14.0
2039,-2e-05,-1e-05,-3e-05,4e-05,-6e-05,1e-05,0.0,1e-05,1,14.0
2040,-2e-05,-1e-05,-3e-05,4e-05,-6e-05,1e-05,0.0,1e-05,1,14.0
2041,-2e-05,-1e-05,-3e-05,4e-05,-6e-05,1e-05,0.0,1e-05,1,14.0
2042,-2e-05,-1e-05,-3e-05,4e-05,-6e-05,1e-05,0.0,1e-05,1,14.0
2043,-2e-05,-1e-05,-3e-05,4e-05,-6e-05,1e-05,0.0,1e-05,1,14.0
2044,-2e-05,-1e-05,-3e-05,4e-05,-6e-05,1e-05,0.0,1e-05,1,14.0
2045,-2e-05,-1e-05,-3e-05,4e-05,-6e-05,1e-05,0.0,1e-05,1,14.0
2046,-2e-05,-1e-05,-3e-05,4e-05,-6e-05,1e-05,0.0,1e-05,1,14.0
2047,-2e-05,-1e-05,-3e-05,4e-05,-6e-05,1e-05,0.0,1e-05,1,14.0
2048,-1e-05,1e-05,-1e-05,4e-05,8e-05,-2e-05,-3e-05,-1e-05,1,14.0
2049,-1e-05,1e-05,-1e-05,4e-05,8e-05,-2e-05,-3e-05,-1e-05,1,14.0
2050,-1e-05,1e-05,-1e-05,4e-05,8e-05,-2e-05,-3e-05,-1e-05,1,14.0
2051,-1e-05,1e-05,-1e-05,4e-05,8e-05,-2e-05,-3e-05,-1e-05,1,14.0
2052,-1e-05,1e-05,-1e-05,4e-05,8e-05,-2e-05,-3e-05,-1e-05,1,14.0
2053,-1e-05,1e-05,-1e-05,4e-05,8e-05,-2e-05,-3e-05,-1e-05,1,14.0
2054,-1e-05,1e-05,-1e-05,4e-05,8e-05,-2e-05,-3e-05,-1e-05,1,14.0
2055,-1e-05,1e-05,-1e-05,4e-05,8e-05,-2e-05,-3e-05,-1e-05,1,14.0
2056,-1e-05,1e-05,-1e-05,4e-05,8e-05,-2e-05,-3e-05,-1e-05,1,14.0
2057,-1e-05,1e-05,-1e-05,4e-05,8e-05,-2e-05,-3e-05,-1e-05,1,14.0
2058,-1e-05,1e-05,-1e-05,4e-05,8e-05,-2e-05,-3e-05,-1e-05,1,14.0
2059,-1e-05,1e-05,-1e-05,4e-05,8e-05,-2e-05,-3e-05,-1e-05,1,14.0
2060,-2e-05,1e-05,1e-05,4e-05,1e-05,-2e-05,-2e-05,-2e-05,1,14.0
2061,1e-05,0.0,0.0,-3e-05,-0.00015,-1e-05,-1e-05,-1e-05,1,14.0
2062,1e-05,0.0,0.0,-3e-05,-0.00015,-1e-05,-1e-05,-1e-05,1,14.0
2063,1e-05,0.0,0.0,-3e-05,-0.00015,-1e-05,-1e-05,-1e-05,1,14.0
2064,1e-05,0.0,0.0,-3e-05,-0.00015,-1e-05,-1e-05,-1e-05,1,14.0
2065,1e-05,0.0,0.0,-3e-05,-0.00015,-1e-05,-1e-05,-1e-05,1,14.0
2066,1e-05,0.0,0.0,-3e-05,-0.00015,-1e-05,-1e-05,-1e-05,1,14.0
2067,1e-05,0.0,0.0,-3e-05,-0.00015,-1e-05,-1e-05,-1e-05,1,14.0
2068,1e-05,0.0,0.0,-3e-05,-0.00015,-1e-05,-1e-05,-1e-05,1,14.0
2069,-2e-05,-3e-05,0.0,0.0,0.00012,-1e-05,-1e-05,-1e-05,1,14.0
2070,-2e-05,-1e-05,-1e-05,9e-05,0.0004,2e-05,-2e-05,-2e-05,1,14.0
2071,1e-05,1e-05,2e-05,2e-05,-9e-05,-3e-05,0.0,0.0,1,14.0
2072,1e-05,1e-05,2e-05,2e-05,-9e-05,-3e-05,0.0,0.0,1,14.0
2073,1e-05,1e-05,2e-05,2e-05,-9e-05,-3e-05,0.0,0.0,1,14.0
2074,1e-05,1e-05,2e-05,2e-05,-9e-05,-3e-05,0.0,0.0,1,14.0
2075,1e-05,1e-05,2e-05,2e-05,-9e-05,-3e-05,0.0,0.0,1,14.0
2076,1e-05,1e-05,2e-05,2e-05,-9e-05,-3e-05,0.0,0.0,1,14.0
2077,1e-05,1e-05,2e-05,2e-05,-9e-05,-3e-05,0.0,0.0,1,14.0
2078,1e-05,1e-05,2e-05,2e-05,-9e-05,-3e-05,0.0,0.0,1,14.0
2079,1e-05,1e-05,2e-05,2e-05,-9e-05,-3e-05,0.0,0.0,1,14.0
2080,1e-05,1e-05,2e-05,2e-05,-9e-05,-3e-05,0.0,0.0,1,14.0
2081,1e-05,1e-05,2e-05,2e-05,-9e-05,-3e-05,0.0,0.0,1,14.0
2082,1e-05,1e-05,2e-05,2e-05,-9e-05,-3e-05,0.0,0.0,1,14.0
2083,1e-05,1e-05,2e-05,2e-05,-9e-05,-3e-05,0.0,0.0,1,14.0
2084,1e-05,1e-05,0.0,1e-05,-5e-05,-2e-05,-1e-05,-2e-05,1,14.0
2085,1e-05,1e-05,0.0,1e-05,-5e-05,-2e-05,-1e-05,-2e-05,1,14.0
2086,-1e-05,-4e-05,-5e-05,-5e-05,0.00014,0.0,0.0,-2e-05,1,14.0
2088,-1e-05,-4e-05,-5e-05,-5e-05,0.00014,0.0,0.0,-2e-05,1,14.0
2089,-1e-05,-4e-05,-5e-05,-5e-05,0.00014,0.0,0.0,-2e-05,1,14.0
2090,-1e-05,-4e-05,-5e-05,-5e-05,0.00014,0.0,0.0,-2e-05,1,14.0
2091,-1e-05,-4e-05,-5e-05,-5e-05,0.00014,0.0,0.0,-2e-05,1,14.0
2092,-1e-05,-4e-05,-5e-05,-5e-05,0.00014,0.0,0.0,-2e-05,1,14.0
2093,-1e-05,-4e-05,-5e-05,-5e-05,0.00014,0.0,0.0,-2e-05,1,14.0
2094,-1e-05,-4e-05,-5e-05,-5e-05,0.00014,0.0,0.0,-2e-05,1,14.0
2095,-1e-05,-4e-05,-5e-05,-5e-05,0.00014,0.0,0.0,-2e-05,1,14.0
2096,-1e-05,-4e-05,-5e-05,-5e-05,0.00014,0.0,0.0,-2e-05,1,14.0
2097,-1e-05,-4e-05,-5e-05,-5e-05,0.00014,0.0,0.0,-2e-05,1,14.0
2098,-1e-05,-4e-05,-5e-05,-5e-05,0.00014,0.0,0.0,-2e-05,1,14.0
2099,-1e-05,-4e-05,-5e-05,-5e-05,0.00014,0.0,0.0,-2e-05,1,14.0
2100,-1e-05,-4e-05,-5e-05,-5e-05,0.00014,0.0,0.0,-2e-05,1,14.0
2101,-1e-05,-4e-05,-5e-05,-5e-05,0.00014,0.0,0.0,-2e-05,1,14.0
2102,-1e-05,-4e-05,-5e-05,-5e-05,0.00014,0.0,0.0,-2e-05,1,14.0
2103,-1e-05,-4e-05,-5e-05,-5e-05,0.00014,0.0,0.0,-2e-05,1,14.0
2104,-1e-05,-4e-05,-5e-05,-5e-05,0.00014,0.0,0.0,-2e-05,1,14.0
2105,-1e-05,-4e-05,-5e-05,-5e-05,0.00014,0.0,0.0,-2e-05,1,14.0
2106,-1e-05,-4e-05,-5e-05,-5e-05,0.00014,0.0,0.0,-2e-05,1,14.0
2107,-2e-05,-1e-05,3e-05,-4e-05,-6e-05,-3e-05,-1e-05,-1e-05,1,14.0
2108,-2e-05,-1e-05,3e-05,-4e-05,-6e-05,-3e-05,-1e-05,-1e-05,1,14.0
2109,-2e-05,-1e-05,3e-05,-4e-05,-6e-05,-3e-05,-1e-05,-1e-05,1,14.0
2110,-2e-05,-1e-05,3e-05,-4e-05,-6e-05,-3e-05,-1e-05,-1e-05,1,14.0
2111,-2e-05,-1e-05,3e-05,-4e-05,-6e-05,-3e-05,-1e-05,-1e-05,1,14.0
2112,-2e-05,-1e-05,3e-05,-4e-05,-6e-05,-3e-05,-1e-05,-1e-05,1,14.0
2113,-3e-05,-4e-05,-5e-05,-3e-05,8e-05,-1e-05,-1e-05,-1e-05,1,14.0
2114,-3e-05,-4e-05,-5e-05,-3e-05,8e-05,-1e-05,-1e-05,-1e-05,1,14.0
2115,-3e-05,-4e-05,-5e-05,-3e-05,8e-05,-1e-05,-1e-05,-1e-05,1,14.0
2116,-3e-05,-4e-05,-5e-05,-3e-05,8e-05,-1e-05,-1e-05,-1e-05,1,14.0
2117,-3e-05,-4e-05,-5e-05,-3e-05,8e-05,-1e-05,-1e-05,-1e-05,1,14.0
2118,-3e-05,-4e-05,-5e-05,-3e-05,8e-05,-1e-05,-1e-05,-1e-05,1,14.0
2119,-3e-05,-4e-05,-5e-05,-3e-05,8e-05,-1e-05,-1e-05,-1e-05,1,14.0
2120,-3e-05,-4e-05,-5e-05,-3e-05,8e-05,-1e-05,-1e-05,-1e-05,1,14.0
2121,-3e-05,-4e-05,-5e-05,-3e-05,8e-05,-1e-05,-1e-05,-1e-05,1,14.0
2122,-3e-05,-4e-05,-5e-05,-3e-05,8e-05,-1e-05,-1e-05,-1e-05,1,14.0
2123,-3e-05,-4e-05,-5e-05,-3e-05,8e-05,-1e-05,-1e-05,-1e-05,1,14.0
2124,-3e-05,-4e-05,-5e-05,-3e-05,8e-05,-1e-05,-1e-05,-1e-05,1,14.0
2125,-3e-05,-4e-05,-5e-05,-3e-05,8e-05,-1e-05,-1e-05,-1e-05,1,14.0
2126,-3e-05,-4e-05,-5e-05,-3e-05,8e-05,-1e-05,-1e-05,-1e-05,1,14.0
2127,-3e-05,-4e-05,-5e-05,-3e-05,8e-05,-1e-05,-1e-05,-1e-05,1,14.0
2128,-3e-05,-4e-05,-5e-05,-3e-05,8e-05,-1e-05,-1e-05,-1e-05,1,14.0
2129,-3e-05,-4e-05,-5e-05,-3e-05,8e-05,-1e-05,-1e-05,-1e-05,1,14.0
2130,-3e-05,1e-05,0.0,-3e-05,2e-05,-1e-05,-2e-05,-2e-05,1,14.0
2131,1e-05,1e-05,1e-05,0.0,-0.00011,0.0,1e-05,0.0,1,14.0
2132,-2e-05,-2e-05,-2e-05,0.0,0.00013,1e-05,-1e-05,-2e-05,1,14.0
2133,-2e-05,-2e-05,-2e-05,0.0,0.00013,1e-05,-1e-05,-2e-05,1,14.0
2134,-2e-05,-2e-05,-2e-05,0.0,0.00013,1e-05,-1e-05,-2e-05,1,14.0
2135,-2e-05,-2e-05,-2e-05,0.0,0.00013,1e-05,-1e-05,-2e-05,1,14.0
2136,-2e-05,-2e-05,-2e-05,0.0,0.00013,1e-05,-1e-05,-2e-05,1,14.0
2138,-2e-05,-2e-05,-2e-05,0.0,0.00013,1e-05,-1e-05,-2e-05,1,14.0
2139,-2e-05,-2e-05,-2e-05,0.0,0.00013,1e-05,-1e-05,-2e-05,1,14.0
2140,-2e-05,-2e-05,-2e-05,0.0,0.00013,1e-05,-1e-05,-2e-05,1,14.0
2141,-2e-05,-2e-05,-2e-05,0.0,0.00013,1e-05,-1e-05,-2e-05,1,14.0
2142,-2e-05,-2e-05,-2e-05,0.0,0.00013,1e-05,-1e-05,-2e-05,1,14.0
2143,-2e-05,-2e-05,-2e-05,0.0,0.00013,1e-05,-1e-05,-2e-05,1,14.0
2144,-1e-05,0.0,2e-05,0.00013,0.00017,-1e-05,-1e-05,0.0,1,14.0
2145,-2e-05,-3e-05,-4e-05,-0.00017,-8e-05,0.0,2e-05,-2e-05,1,14.0
2146,-1e-05,-2e-05,-1e-05,1e-05,0.0,0.0,-2e-05,-1e-05,1,14.0
2147,-1e-05,-2e-05,-1e-05,1e-05,0.0,0.0,-2e-05,-1e-05,1,14.0
2148,-1e-05,-2e-05,-1e-05,1e-05,0.0,0.0,-2e-05,-1e-05,1,14.0
2149,-1e-05,-2e-05,-1e-05,1e-05,0.0,0.0,-2e-05,-1e-05,1,14.0
2150,-1e-05,-2e-05,-1e-05,1e-05,0.0,0.0,-2e-05,-1e-05,1,14.0
2151,-1e-05,-2e-05,-1e-05,1e-05,0.0,0.0,-2e-05,-1e-05,1,14.0
2152,-1e-05,-2e-05,-1e-05,1e-05,0.0,0.0,-2e-05,-1e-05,1,14.0
2153,-1e-05,-2e-05,-1e-05,1e-05,0.0,0.0,-2e-05,-1e-05,1,14.0
2154,-1e-05,-2e-05,-1e-05,1e-05,0.0,0.0,-2e-05,-1e-05,1,14.0
2155,-1e-05,-2e-05,-1e-05,1e-05,0.0,0.0,-2e-05,-1e-05,1,14.0
2156,-1e-05,-2e-05,-1e-05,1e-05,0.0,0.0,-2e-05,-1e-05,1,14.0
2157,-1e-05,-2e-05,-1e-05,1e-05,0.0,0.0,-2e-05,-1e-05,1,14.0
2158,-1e-05,-2e-05,-1e-05,1e-05,0.0,0.0,-2e-05,-1e-05,1,14.0
2159,-1e-05,-2e-05,-1e-05,1e-05,0.0,0.0,-2e-05,-1e-05,1,14.0
2160,-1e-05,-2e-05,-1e-05,1e-05,0.0,0.0,-2e-05,-1e-05,1,14.0
2161,-1e-05,-2e-05,-1e-05,1e-05,0.0,0.0,-2e-05,-1e-05,1,14.0
2162,-1e-05,-2e-05,-1e-05,1e-05,0.0,0.0,-2e-05,-1e-05,1,14.0
2163,-1e-05,-2e-05,-1e-05,1e-05,0.0,0.0,-2e-05,-1e-05,1,14.0
2164,-1e-05,-2e-05,-1e-05,1e-05,0.0,0.0,-2e-05,-1e-05,1,14.0
2165,-1e-05,-2e-05,-1e-05,1e-05,0.0,0.0,-2e-05,-1e-05,1,14.0
2166,-1e-05,-2e-05,-1e-05,1e-05,0.0,0.0,-2e-05,-1e-05,1,14.0
2167,0.0,-1e-05,2e-05,5e-05,-0.00025,-3e-05,-1e-05,-1e-05,1,14.0
2168,0.0,-2e-05,-6e-05,-6e-05,0.00028,-3e-05,-2e-05,-2e-05,1,14.0
2169,1e-05,-2e-05,2e-05,0.0,-0.00011,1e-05,1e-05,0.0,1,14.0
2170,1e-05,-2e-05,2e-05,0.0,-0.00011,1e-05,1e-05,0.0,1,14.0
2171,1e-05,-2e-05,2e-05,0.0,-0.00011,1e-05,1e-05,0.0,1,14.0
2172,1e-05,-2e-05,2e-05,0.0,-0.00011,1e-05,1e-05,0.0,1,14.0
2173,1e-05,-2e-05,2e-05,0.0,-0.00011,1e-05,1e-05,0.0,1,14.0
2174,1e-05,-2e-05,2e-05,0.0,-0.00011,1e-05,1e-05,0.0,1,14.0
2175,1e-05,-2e-05,2e-05,0.0,-0.00011,1e-05,1e-05,0.0,1,14.0
2176,1e-05,-2e-05,2e-05,0.0,-0.00011,1e-05,1e-05,0.0,1,14.0
2177,1e-05,-2e-05,2e-05,0.0,-0.00011,1e-05,1e-05,0.0,1,14.0
2178,1e-05,-2e-05,2e-05,0.0,-0.00011,1e-05,1e-05,0.0,1,14.0
2179,1e-05,-2e-05,2e-05,0.0,-0.00011,1e-05,1e-05,0.0,1,14.0
2180,1e-05,-2e-05,2e-05,0.0,-0.00011,1e-05,1e-05,0.0,1,14.0
2181,1e-05,-2e-05,2e-05,0.0,-0.00011,1e-05,1e-05,0.0,1,14.0
2182,1e-05,-2e-05,2e-05,0.0,-0.00011,1e-05,1e-05,0.0,1,14.0
2183,1e-05,-2e-05,2e-05,0.0,-0.00011,1e-05,1e-05,0.0,1,14.0
2184,1e-05,-2e-05,2e-05,0.0,-0.00011,1e-05,1e-05,0.0,1,14.0
2185,1e-05,-2e-05,2e-05,0.0,-0.00011,1e-05,1e-05,0.0,1,14.0
2186,1e-05,-2e-05,2e-05,0.0,-0.00011,1e-05,1e-05,0.0,1,14.0
2189,1e-05,-2e-05,2e-05,0.0,-0.00011,1e-05,1e-05,0.0,1,14.0
2190,0.0,-1e-05,-1e-05,4e-05,7e-05,2e-05,0.0,1e-05,1,14.0
2191,0.0,-1e-05,-1e-05,4e-05,7e-05,2e-05,0.0,1e-05,1,14.0
2192,-2e-05,0.0,0.0,-2e-05,0.0003,-2e-05,-2e-05,-3e-05,1,14.0
2193,-2e-05,0.0,0.0,-2e-05,0.0003,-2e-05,-2e-05,-3e-05,1,14.0
2194,-2e-05,0.0,0.0,-2e-05,0.0003,-2e-05,-2e-05,-3e-05,1,14.0
2195,-2e-05,0.0,0.0,-2e-05,0.0003,-2e-05,-2e-05,-3e-05,1,14.0
2196,-2e-05,0.0,0.0,-2e-05,0.0003,-2e-05,-2e-05,-3e-05,1,14.0
2197,-2e-05,0.0,0.0,-2e-05,0.0003,-2e-05,-2e-05,-3e-05,1,14.0
2198,-2e-05,0.0,0.0,-2e-05,0.0003,-2e-05,-2e-05,-3e-05,1,14.0
2199,-2e-05,0.0,0.0,-2e-05,0.0003,-2e-05,-2e-05,-3e-05,1,14.0
2200,-2e-05,0.0,0.0,-2e-05,0.0003,-2e-05,-2e-05,-3e-05,1,14.0
2201,-2e-05,0.0,0.0,-2e-05,0.0003,-2e-05,-2e-05,-3e-05,1,14.0
2202,-2e-05,0.0,0.0,-2e-05,0.0003,-2e-05,-2e-05,-3e-05,1,14.0
2203,-2e-05,0.0,0.0,-2e-05,0.0003,-2e-05,-2e-05,-3e-05,1,14.0
2204,0.0,-2e-05,-2e-05,4e-05,-4e-05,-3e-05,-2e-05,0.0,1,14.0
2205,0.0,-2e-05,-2e-05,4e-05,-4e-05,-3e-05,-2e-05,0.0,1,14.0
2206,0.0,-2e-05,-2e-05,4e-05,-4e-05,-3e-05,-2e-05,0.0,1,14.0
2207,0.0,-2e-05,-2e-05,4e-05,-4e-05,-3e-05,-2e-05,0.0,1,14.0
2208,0.0,-2e-05,-2e-05,4e-05,-4e-05,-3e-05,-2e-05,0.0,1,14.0
2209,0.0,-2e-05,-2e-05,4e-05,-4e-05,-3e-05,-2e-05,0.0,1,14.0
2210,0.0,-2e-05,-2e-05,4e-05,-4e-05,-3e-05,-2e-05,0.0,1,14.0
2211,-1e-05,1e-05,2e-05,0.00012,-2e-05,-1e-05,-1e-05,-2e-05,1,14.0
2212,-1e-05,1e-05,2e-05,0.00012,-2e-05,-1e-05,-1e-05,-2e-05,1,14.0
2213,-1e-05,1e-05,2e-05,0.00012,-2e-05,-1e-05,-1e-05,-2e-05,1,14.0
2214,-1e-05,1e-05,2e-05,0.00012,-2e-05,-1e-05,-1e-05,-2e-05,1,14.0
2215,-1e-05,1e-05,2e-05,0.00012,-2e-05,-1e-05,-1e-05,-2e-05,1,14.0
2216,-1e-05,1e-05,2e-05,0.00012,-2e-05,-1e-05,-1e-05,-2e-05,1,14.0
2217,-1e-05,1e-05,2e-05,0.00012,-2e-05,-1e-05,-1e-05,-2e-05,1,14.0
2218,-1e-05,1e-05,2e-05,0.00012,-2e-05,-1e-05,-1e-05,-2e-05,1,14.0
2219,-1e-05,1e-05,2e-05,0.00012,-2e-05,-1e-05,-1e-05,-2e-05,1,14.0
2220,-1e-05,1e-05,2e-05,0.00012,-2e-05,-1e-05,-1e-05,-2e-05,1,14.0
2221,-1e-05,1e-05,2e-05,0.00012,-2e-05,-1e-05,-1e-05,-2e-05,1,14.0
2222,-1e-05,1e-05,2e-05,0.00012,-2e-05,-1e-05,-1e-05,-2e-05,1,14.0
2223,-1e-05,1e-05,2e-05,0.00012,-2e-05,-1e-05,-1e-05,-2e-05,1,14.0
2224,-1e-05,1e-05,2e-05,0.00012,-2e-05,-1e-05,-1e-05,-2e-05,1,14.0
2225,-1e-05,1e-05,2e-05,0.00012,-2e-05,-1e-05,-1e-05,-2e-05,1,14.0
2226,-1e-05,1e-05,2e-05,0.00012,-2e-05,-1e-05,-1e-05,-2e-05,1,14.0
2227,-2e-05,-4e-05,-6e-05,2e-05,-3e-05,-2e-05,1e-05,1e-05,1,14.0
2228,-2e-05,-4e-05,-6e-05,2e-05,-3e-05,-2e-05,1e-05,1e-05,1,14.0
2229,0.0,1e-05,-2e-05,-3e-05,0.00028,-2e-05,-1e-05,-1e-05,1,14.0
2230,0.0,1e-05,-2e-05,-3e-05,0.00028,-2e-05,-1e-05,-1e-05,1,14.0
2231,0.0,1e-05,-2e-05,-3e-05,0.00028,-2e-05,-1e-05,-1e-05,1,14.0
2232,0.0,1e-05,-2e-05,-3e-05,0.00028,-2e-05,-1e-05,-1e-05,1,14.0
2233,0.0,1e-05,-2e-05,-3e-05,0.00028,-2e-05,-1e-05,-1e-05,1,14.0
2234,0.0,1e-05,-2e-05,-3e-05,0.00028,-2e-05,-1e-05,-1e-05,1,14.0
2235,0.0,1e-05,-2e-05,-3e-05,0.00028,-2e-05,-1e-05,-1e-05,1,14.0
2236,0.0,1e-05,-2e-05,-3e-05,0.00028,-2e-05,-1e-05,-1e-05,1,14.0
2239,0.0,1e-05,-2e-05,-3e-05,0.00028,-2e-05,-1e-05,-1e-05,1,14.0
2240,0.0,1e-05,-2e-05,-3e-05,0.00028,-2e-05,-1e-05,-1e-05,1,14.0
2241,0.0,1e-05,-2e-05,-3e-05,0.00028,-2e-05,-1e-05,-1e-05,1,14.0
2242,0.0,1e-05,-2e-05,-3e-05,0.00028,-2e-05,-1e-05,-1e-05,1,14.0
2243,0.0,1e-05,-2e-05,-3e-05,0.00028,-2e-05,-1e-05,-1e-05,1,14.0
2244,0.0,1e-05,-2e-05,-3e-05,0.00028,-2e-05,-1e-05,-1e-05,1,14.0
2245,0.0,1e-05,-2e-05,-3e-05,0.00028,-2e-05,-1e-05,-1e-05,1,14.0
2246,0.0,1e-05,-2e-05,-3e-05,0.00028,-2e-05,-1e-05,-1e-05,1,14.0
2247,0.0,1e-05,-2e-05,-3e-05,0.00028,-2e-05,-1e-05,-1e-05,1,14.0
2248,0.0,1e-05,-2e-05,-3e-05,0.00028,-2e-05,-1e-05,-1e-05,1,14.0
2249,0.0,1e-05,-2e-05,-3e-05,0.00028,-2e-05,-1e-05,-1e-05,1,14.0
2250,0.0,0.0,1e-05,-4e-05,-0.00034,-3e-05,-1e-05,-1e-05,1,14.0
2251,-2e-05,-1e-05,-3e-05,-3e-05,-0.00024,-2e-05,0.0,0.0,1,14.0
2252,-2e-05,-1e-05,-3e-05,-3e-05,-0.00024,-2e-05,0.0,0.0,1,14.0
2253,-2e-05,-1e-05,-3e-05,-3e-05,-0.00024,-2e-05,0.0,0.0,1,14.0
2254,-2e-05,-1e-05,-3e-05,-3e-05,-0.00024,-2e-05,0.0,0.0,1,14.0
2255,-2e-05,-1e-05,-3e-05,-3e-05,-0.00024,-2e-05,0.0,0.0,1,14.0
2256,-2e-05,-1e-05,-3e-05,-3e-05,-0.00024,-2e-05,0.0,0.0,1,14.0
2257,-2e-05,-1e-05,-3e-05,-3e-05,-0.00024,-2e-05,0.0,0.0,1,14.0
2258,-2e-05,-1e-05,-3e-05,-3e-05,-0.00024,-2e-05,0.0,0.0,1,14.0
2259,-2e-05,-1e-05,-3e-05,-3e-05,-0.00024,-2e-05,0.0,0.0,1,14.0
2260,-2e-05,-1e-05,-3e-05,-3e-05,-0.00024,-2e-05,0.0,0.0,1,14.0
2261,-2e-05,-1e-05,-3e-05,-3e-05,-0.00024,-2e-05,0.0,0.0,1,14.0
2262,-2e-05,-1e-05,-3e-05,-3e-05,-0.00024,-2e-05,0.0,0.0,1,14.0
2263,-2e-05,-1e-05,-3e-05,-3e-05,-0.00024,-2e-05,0.0,0.0,1,14.0
2264,1e-05,-1e-05,-1e-05,-4e-05,0.0,-1e-05,0.0,-1e-05,1,14.0
2265,1e-05,-1e-05,-1e-05,-4e-05,0.0,-1e-05,0.0,-1e-05,1,14.0
2266,1e-05,-1e-05,-1e-05,-4e-05,0.0,-1e-05,0.0,-1e-05,1,14.0
2267,1e-05,-1e-05,-1e-05,-4e-05,0.0,-1e-05,0.0,-1e-05,1,14.0
2268,1e-05,-1e-05,-1e-05,-4e-05,0.0,-1e-05,0.0,-1e-05,1,14.0
2269,1e-05,-1e-05,-1e-05,-4e-05,0.0,-1e-05,0.0,-1e-05,1,14.0
2270,1e-05,-1e-05,-1e-05,-4e-05,0.0,-1e-05,0.0,-1e-05,1,14.0
2271,-1e-05,-3e-05,-7e-05,-6e-05,1e-05,-2e-05,-1e-05,0.0,1,14.0
2272,-1e-05,-3e-05,-7e-05,-6e-05,1e-05,-2e-05,-1e-05,0.0,1,14.0
2273,-1e-05,-3e-05,-7e-05,-6e-05,1e-05,-2e-05,-1e-05,0.0,1,14.0
2274,-1e-05,-3e-05,-7e-05,-6e-05,1e-05,-2e-05,-1e-05,0.0,1,14.0
2275,-1e-05,-3e-05,-7e-05,-6e-05,1e-05,-2e-05,-1e-05,0.0,1,14.0
2276,-1e-05,-3e-05,-7e-05,-6e-05,1e-05,-2e-05,-1e-05,0.0,1,14.0
2277,-1e-05,-3e-05,-7e-05,-6e-05,1e-05,-2e-05,-1e-05,0.0,1,14.0
2278,-1e-05,-3e-05,-7e-05,-6e-05,1e-05,-2e-05,-1e-05,0.0,1,14.0
2279,-1e-05,-3e-05,-7e-05,-6e-05,1e-05,-2e-05,-1e-05,0.0,1,14.0
2280,-1e-05,-3e-05,-7e-05,-6e-05,1e-05,-2e-05,-1e-05,0.0,1,14.0
2281,-1e-05,-3e-05,-7e-05,-6e-05,1e-05,-2e-05,-1e-05,0.0,1,14.0
2282,-1e-05,-3e-05,-7e-05,-6e-05,1e-05,-2e-05,-1e-05,0.0,1,14.0
2283,-1e-05,-3e-05,-7e-05,-6e-05,1e-05,-2e-05,-1e-05,0.0,1,14.0
2284,-1e-05,-3e-05,-7e-05,-6e-05,1e-05,-2e-05,-1e-05,0.0,1,14.0
2285,-1e-05,-3e-05,-7e-05,-6e-05,1e-05,-2e-05,-1e-05,0.0,1,14.0
2286,-1e-05,-3e-05,-7e-05,-6e-05,1e-05,-2e-05,-1e-05,0.0,1,14.0
2289,-1e-05,-3e-05,-7e-05,-6e-05,1e-05,-2e-05,-1e-05,0.0,1,14.0
2290,-1e-05,-3e-05,-7e-05,-6e-05,1e-05,-2e-05,-1e-05,0.0,1,14.0
2291,-1e-05,-3e-05,-7e-05,-6e-05,1e-05,-2e-05,-1e-05,0.0,1,14.0
2292,-1e-05,-3e-05,-7e-05,-6e-05,1e-05,-2e-05,-1e-05,0.0,1,14.0
2293,-1e-05,-3e-05,-7e-05,-6e-05,1e-05,-2e-05,-1e-05,0.0,1,14.0
2294,-1e-05,-3e-05,-7e-05,-6e-05,1e-05,-2e-05,-1e-05,0.0,1,14.0
2295,-2e-05,0.0,-1e-05,-6e-05,-5e-05,0.0,-1e-05,-2e-05,1,14.0
2296,0.0,-2e-05,-3e-05,-9e-05,-0.00012,-2e-05,-1e-05,0.0,1,14.0
2297,0.0,-2e-05,-3e-05,-9e-05,-0.00012,-2e-05,-1e-05,0.0,1,14.0
2298,0.0,-2e-05,-3e-05,-9e-05,-0.00012,-2e-05,-1e-05,0.0,1,14.0
2299,0.0,-2e-05,-3e-05,-9e-05,-0.00012,-2e-05,-1e-05,0.0,1,14.0
2300,0.0,-2e-05,-3e-05,-9e-05,-0.00012,-2e-05,-1e-05,0.0,1,14.0
2301,0.0,-2e-05,-3e-05,-9e-05,-0.00012,-2e-05,-1e-05,0.0,1,14.0
2302,0.0,-2e-05,-3e-05,-9e-05,-0.00012,-2e-05,-1e-05,0.0,1,14.0
2303,0.0,-2e-05,-3e-05,-9e-05,-0.00012,-2e-05,-1e-05,0.0,1,14.0
2304,0.0,-2e-05,-3e-05,-9e-05,-0.00012,-2e-05,-1e-05,0.0,1,14.0
2305,0.0,-2e-05,-3e-05,-9e-05,-0.00012,-2e-05,-1e-05,0.0,1,14.0
2306,0.0,-2e-05,-3e-05,-9e-05,-0.00012,-2e-05,-1e-05,0.0,1,14.0
2307,0.0,-2e-05,-3e-05,-9e-05,-0.00012,-2e-05,-1e-05,0.0,1,14.0
2308,0.0,-2e-05,-3e-05,-9e-05,-0.00012,-2e-05,-1e-05,0.0,1,14.0
2309,0.0,-2e-05,-3e-05,-9e-05,-0.00012,-2e-05,-1e-05,0.0,1,14.0
2310,0.0,-2e-05,-3e-05,-9e-05,-0.00012,-2e-05,-1e-05,0.0,1,14.0
2311,0.0,-2e-05,-3e-05,-9e-05,-0.00012,-2e-05,-1e-05,0.0,1,14.0
2312,0.0,-2e-05,-3e-05,-9e-05,-0.00012,-2e-05,-1e-05,0.0,1,14.0
2313,0.0,-2e-05,-3e-05,-9e-05,-0.00012,-2e-05,-1e-05,0.0,1,14.0
2314,0.0,-2e-05,-3e-05,-9e-05,-0.00012,-2e-05,-1e-05,0.0,1,14.0
2315,0.0,-2e-05,-3e-05,-9e-05,-0.00012,-2e-05,-1e-05,0.0,1,14.0
2316,0.0,-2e-05,-3e-05,-9e-05,-0.00012,-2e-05,-1e-05,0.0,1,14.0
2317,-2e-05,-2e-05,-1e-05,-0.0001,3e-05,0.0,-2e-05,-3e-05,1,14.0
2318,-2e-05,-2e-05,-1e-05,-0.0001,3e-05,0.0,-2e-05,-3e-05,1,14.0
2319,-1e-05,0.0,1e-05,2e-05,0.00026,0.0,0.0,-2e-05,1,14.0
2320,-1e-05,0.0,1e-05,2e-05,0.00026,0.0,0.0,-2e-05,1,14.0
2321,-1e-05,0.0,1e-05,2e-05,0.00026,0.0,0.0,-2e-05,1,14.0
2322,-1e-05,0.0,1e-05,2e-05,0.00026,0.0,0.0,-2e-05,1,14.0
2323,-1e-05,0.0,1e-05,2e-05,0.00026,0.0,0.0,-2e-05,1,14.0
2324,-1e-05,0.0,1e-05,2e-05,0.00026,0.0,0.0,-2e-05,1,14.0
2325,-1e-05,0.0,1e-05,2e-05,0.00026,0.0,0.0,-2e-05,1,14.0
2326,-1e-05,0.0,1e-05,2e-05,0.00026,0.0,0.0,-2e-05,1,14.0
2327,-1e-05,0.0,1e-05,2e-05,0.00026,0.0,0.0,-2e-05,1,14.0
2328,-1e-05,0.0,1e-05,2e-05,0.00026,0.0,0.0,-2e-05,1,14.0
2329,-1e-05,0.0,1e-05,2e-05,0.00026,0.0,0.0,-2e-05,1,14.0
2330,-1e-05,0.0,1e-05,2e-05,0.00026,0.0,0.0,-2e-05,1,14.0
2331,-1e-05,0.0,1e-05,2e-05,0.00026,0.0,0.0,-2e-05,1,14.0
2332,-2e-05,-3e-05,-8e-05,-4e-05,2e-05,1e-05,0.0,-4e-05,1,14.0
2333,-2e-05,-3e-05,-8e-05,-4e-05,2e-05,1e-05,0.0,-4e-05,1,14.0
2334,-1e-05,-1e-05,0.0,1e-05,-0.00013,-1e-05,-1e-05,-3e-05,1,14.0
2335,-1e-05,-1e-05,0.0,1e-05,-0.00013,-1e-05,-1e-05,-3e-05,1,14.0
2336,-1e-05,-1e-05,0.0,1e-05,-0.00013,-1e-05,-1e-05,-3e-05,1,14.0
2339,-1e-05,-1e-05,0.0,1e-05,-0.00013,-1e-05,-1e-05,-3e-05,1,14.0
2340,-1e-05,-1e-05,0.0,1e-05,-0.00013,-1e-05,-1e-05,-3e-05,1,14.0
2341,-1e-05,-1e-05,0.0,1e-05,-0.00013,-1e-05,-1e-05,-3e-05,1,14.0
2342,-1e-05,-1e-05,0.0,1e-05,-0.00013,-1e-05,-1e-05,-3e-05,1,14.0
2343,-1e-05,-1e-05,0.0,1e-05,-0.00013,-1e-05,-1e-05,-3e-05,1,14.0
2344,-1e-05,-1e-05,0.0,1e-05,-0.00013,-1e-05,-1e-05,-3e-05,1,14.0
2345,-1e-05,-1e-05,0.0,1e-05,-0.00013,-1e-05,-1e-05,-3e-05,1,14.0
2346,-1e-05,-1e-05,0.0,1e-05,-0.00013,-1e-05,-1e-05,-3e-05,1,14.0
2347,0.0,0.0,0.0,1e-05,-7e-05,-2e-05,-1e-05,0.0,1,14.0
2348,0.0,0.0,0.0,1e-05,-7e-05,-2e-05,-1e-05,0.0,1,14.0
2349,-2e-05,0.0,0.0,1e-05,-0.00011,-1e-05,0.0,-1e-05,1,14.0
2350,-2e-05,0.0,0.0,1e-05,-0.00011,-1e-05,0.0,-1e-05,1,14.0
2351,-2e-05,0.0,0.0,1e-05,-0.00011,-1e-05,0.0,-1e-05,1,14.0
2352,-2e-05,0.0,0.0,1e-05,-0.00011,-1e-05,0.0,-1e-05,1,14.0
2353,-2e-05,0.0,0.0,1e-05,-0.00011,-1e-05,0.0,-1e-05,1,14.0
2354,-2e-05,0.0,0.0,1e-05,-0.00011,-1e-05,0.0,-1e-05,1,14.0
2355,-2e-05,0.0,0.0,1e-05,-0.00011,-1e-05,0.0,-1e-05,1,14.0
2356,-2e-05,0.0,0.0,1e-05,-0.00011,-1e-05,0.0,-1e-05,1,14.0
2357,-2e-05,0.0,0.0,1e-05,-0.00011,-1e-05,0.0,-1e-05,1,14.0
2358,-2e-05,0.0,0.0,1e-05,-0.00011,-1e-05,0.0,-1e-05,1,14.0
2359,-2e-05,0.0,0.0,1e-05,-0.00011,-1e-05,0.0,-1e-05,1,14.0
2360,-2e-05,0.0,0.0,1e-05,-0.00011,-1e-05,0.0,-1e-05,1,14.0
2361,-2e-05,0.0,0.0,1e-05,-0.00011,-1e-05,0.0,-1e-05,1,14.0
2362,-2e-05,0.0,0.0,1e-05,-0.00011,-1e-05,0.0,-1e-05,1,14.0
2363,-2e-05,0.0,0.0,1e-05,-0.00011,-1e-05,0.0,-1e-05,1,14.0
2364,-2e-05,0.0,0.0,1e-05,-0.00011,-1e-05,0.0,-1e-05,1,14.0
2365,-2e-05,0.0,0.0,1e-05,-0.00011,-1e-05,0.0,-1e-05,1,14.0
2366,-2e-05,0.0,0.0,1e-05,-0.00011,-1e-05,0.0,-1e-05,1,14.0
2367,-2e-05,0.0,0.0,1e-05,-0.00011,-1e-05,0.0,-1e-05,1,14.0
2368,-2e-05,0.0,0.0,1e-05,-0.00011,-1e-05,0.0,-1e-05,1,14.0
2369,-2e-05,0.0,0.0,1e-05,-0.00011,-1e-05,0.0,-1e-05,1,14.0
2370,0.0,0.0,-1e-05,-9e-05,0.00042,3e-05,0.0,-1e-05,1,14.0
2371,-3e-05,0.0,-2e-05,1e-05,-0.00018,-3e-05,-1e-05,0.0,1,14.0
2372,-1e-05,-2e-05,-1e-05,-2e-05,-0.00013,-1e-05,0.0,0.0,1,14.0
2373,-1e-05,-2e-05,-1e-05,-2e-05,-0.00013,-1e-05,0.0,0.0,1,14.0
2374,-1e-05,-2e-05,-1e-05,-2e-05,-0.00013,-1e-05,0.0,0.0,1,14.0
2375,-1e-05,-2e-05,-1e-05,-2e-05,-0.00013,-1e-05,0.0,0.0,1,14.0
2376,-1e-05,-2e-05,-1e-05,-2e-05,-0.00013,-1e-05,0.0,0.0,1,14.0
2377,-1e-05,-2e-05,-1e-05,-2e-05,-0.00013,-1e-05,0.0,0.0,1,14.0
2378,-1e-05,-2e-05,-1e-05,-2e-05,-0.00013,-1e-05,0.0,0.0,1,14.0
2379,-1e-05,-2e-05,-1e-05,-2e-05,-0.00013,-1e-05,0.0,0.0,1,14.0
2380,-1e-05,-2e-05,-1e-05,-2e-05,-0.00013,-1e-05,0.0,0.0,1,14.0
2381,-1e-05,-2e-05,-1e-05,-2e-05,-0.00013,-1e-05,0.0,0.0,1,14.0
2382,-1e-05,-2e-05,-1e-05,-2e-05,-0.00013,-1e-05,0.0,0.0,1,14.0
2383,-1e-05,-2e-05,-1e-05,-2e-05,-0.00013,-1e-05,0.0,0.0,1,14.0
2384,-1e-05,0.0,3e-05,0.00017,-3e-05,-2e-05,0.0,-1e-05,1,14.0
2385,-1e-05,0.0,3e-05,0.00017,-3e-05,-2e-05,0.0,-1e-05,1,14.0
2386,-1e-05,0.0,3e-05,0.00017,-3e-05,-2e-05,0.0,-1e-05,1,14.0
2389,-1e-05,0.0,3e-05,0.00017,-3e-05,-2e-05,0.0,-1e-05,1,14.0
2390,-1e-05,0.0,3e-05,0.00017,-3e-05,-2e-05,0.0,-1e-05,1,14.0
2391,-1e-05,-1e-05,-2e-05,-3e-05,-0.00014,-2e-05,-3e-05,-2e-05,1,14.0
2392,-1e-05,-1e-05,-2e-05,-3e-05,-0.00014,-2e-05,-3e-05,-2e-05,1,14.0
2393,-1e-05,-1e-05,-2e-05,-3e-05,-0.00014,-2e-05,-3e-05,-2e-05,1,14.0
2394,-1e-05,-1e-05,-2e-05,-3e-05,-0.00014,-2e-05,-3e-05,-2e-05,1,14.0
2395,-1e-05,-1e-05,-2e-05,-3e-05,-0.00014,-2e-05,-3e-05,-2e-05,1,14.0
2396,-1e-05,-1e-05,-2e-05,-3e-05,-0.00014,-2e-05,-3e-05,-2e-05,1,14.0
2397,-1e-05,-1e-05,-2e-05,-3e-05,-0.00014,-2e-05,-3e-05,-2e-05,1,14.0
2398,-1e-05,-1e-05,-2e-05,-3e-05,-0.00014,-2e-05,-3e-05,-2e-05,1,14.0
2399,-1e-05,-1e-05,-2e-05,-3e-05,-0.00014,-2e-05,-3e-05,-2e-05,1,14.0
2400,-1e-05,-1e-05,-2e-05,-3e-05,-0.00014,-2e-05,-3e-05,-2e-05,1,14.0
2401,-1e-05,-1e-05,-2e-05,-3e-05,-0.00014,-2e-05,-3e-05,-2e-05,1,14.0
2402,-1e-05,-1e-05,-2e-05,-3e-05,-0.00014,-2e-05,-3e-05,-2e-05,1,14.0
2403,-1e-05,-1e-05,-2e-05,-3e-05,-0.00014,-2e-05,-3e-05,-2e-05,1,14.0
2404,-1e-05,-1e-05,-2e-05,-3e-05,-0.00014,-2e-05,-3e-05,-2e-05,1,14.0
2405,-1e-05,-1e-05,-2e-05,-3e-05,-0.00014,-2e-05,-3e-05,-2e-05,1,14.0
2406,-1e-05,-1e-05,-2e-05,-3e-05,-0.00014,-2e-05,-3e-05,-2e-05,1,14.0
2407,-1e-05,-2e-05,-5e-05,-8e-05,1e-05,-1e-05,-2e-05,0.0,1,14.0
2408,-1e-05,-2e-05,-5e-05,-8e-05,1e-05,-1e-05,-2e-05,0.0,1,14.0
2409,0.0,0.0,-4e-05,-0.00014,1e-05,-2e-05,-2e-05,0.0,1,14.0
2410,0.0,0.0,-4e-05,-0.00014,1e-05,-2e-05,-2e-05,0.0,1,14.0
2411,0.0,0.0,-4e-05,-0.00014,1e-05,-2e-05,-2e-05,0.0,1,14.0
2412,0.0,0.0,-4e-05,-0.00014,1e-05,-2e-05,-2e-05,0.0,1,14.0
2413,0.0,0.0,-4e-05,-0.00014,1e-05,-2e-05,-2e-05,0.0,1,14.0
2414,0.0,0.0,-4e-05,-0.00014,1e-05,-2e-05,-2e-05,0.0,1,14.0
2415,0.0,0.0,-4e-05,-0.00014,1e-05,-2e-05,-2e-05,0.0,1,14.0
2416,0.0,0.0,-4e-05,-0.00014,1e-05,-2e-05,-2e-05,0.0,1,14.0
2417,0.0,0.0,-4e-05,-0.00014,1e-05,-2e-05,-2e-05,0.0,1,14.0
2418,0.0,0.0,-4e-05,-0.00014,1e-05,-2e-05,-2e-05,0.0,1,14.0
2419,0.0,0.0,-4e-05,-0.00014,1e-05,-2e-05,-2e-05,0.0,1,14.0
2420,0.0,0.0,-4e-05,-0.00014,1e-05,-2e-05,-2e-05,0.0,1,14.0
2421,0.0,0.0,-4e-05,-0.00014,1e-05,-2e-05,-2e-05,0.0,1,14.0
2422,0.0,0.0,-4e-05,-0.00014,1e-05,-2e-05,-2e-05,0.0,1,14.0
2423,0.0,0.0,-4e-05,-0.00014,1e-05,-2e-05,-2e-05,0.0,1,14.0
2424,0.0,0.0,-4e-05,-0.00014,1e-05,-2e-05,-2e-05,0.0,1,14.0
2425,0.0,0.0,-4e-05,-0.00014,1e-05,-2e-05,-2e-05,0.0,1,14.0
2426,0.0,0.0,-4e-05,-0.00014,1e-05,-2e-05,-2e-05,0.0,1,14.0
2427,0.0,0.0,-4e-05,-0.00014,1e-05,-2e-05,-2e-05,0.0,1,14.0
2428,0.0,0.0,-4e-05,-0.00014,1e-05,-2e-05,-2e-05,0.0,1,14.0
2429,0.0,0.0,-4e-05,-0.00014,1e-05,-2e-05,-2e-05,0.0,1,14.0
2430,0.0,0.0,-4e-05,-0.00014,1e-05,-2e-05,-2e-05,0.0,1,14.0
2431,0.0,0.0,-4e-05,-0.00014,1e-05,-2e-05,-2e-05,0.0,1,14.0
2432,0.0,0.0,-4e-05,-0.00014,1e-05,-2e-05,-2e-05,0.0,1,14.0
2433,0.0,0.0,-4e-05,-0.00014,1e-05,-2e-05,-2e-05,0.0,1,14.0
2434,0.0,0.0,-4e-05,-0.00014,1e-05,-2e-05,-2e-05,0.0,1,14.0
2435,0.0,0.0,-4e-05,-0.00014,1e-05,-2e-05,-2e-05,0.0,1,14.0
2436,0.0,0.0,-4e-05,-0.00014,1e-05,-2e-05,-2e-05,0.0,1,14.0
2439,-1e-05,0.0,2e-05,1e-05,0.00035,-1e-05,0.0,0.0,1,14.0
2440,-1e-05,0.0,2e-05,1e-05,0.00035,-1e-05,0.0,0.0,1,14.0
2441,-1e-05,0.0,2e-05,1e-05,0.00035,-1e-05,0.0,0.0,1,14.0
2442,-1e-05,0.0,2e-05,1e-05,0.00035,-1e-05,0.0,0.0,1,14.0
2443,-1e-05,0.0,2e-05,1e-05,0.00035,-1e-05,0.0,0.0,1,14.0
2444,1e-05,1e-05,3e-05,6e-05,7e-05,-1e-05,-1e-05,0.0,1,14.0
2445,1e-05,1e-05,3e-05,6e-05,7e-05,-1e-05,-1e-05,0.0,1,14.0
2446,1e-05,1e-05,3e-05,6e-05,7e-05,-1e-05,-1e-05,0.0,1,14.0
2447,1e-05,1e-05,3e-05,6e-05,7e-05,-1e-05,-1e-05,0.0,1,14.0
2448,1e-05,1e-05,3e-05,6e-05,7e-05,-1e-05,-1e-05,0.0,1,14.0
2449,1e-05,1e-05,3e-05,6e-05,7e-05,-1e-05,-1e-05,0.0,1,14.0
2450,1e-05,1e-05,3e-05,6e-05,7e-05,-1e-05,-1e-05,0.0,1,14.0
2451,-1e-05,-1e-05,1e-05,3e-05,7e-05,0.0,-2e-05,-2e-05,1,14.0
2452,-1e-05,-1e-05,1e-05,3e-05,7e-05,0.0,-2e-05,-2e-05,1,14.0
2453,-1e-05,-1e-05,1e-05,3e-05,7e-05,0.0,-2e-05,-2e-05,1,14.0
2454,-1e-05,-1e-05,1e-05,3e-05,7e-05,0.0,-2e-05,-2e-05,1,14.0
2455,-1e-05,-1e-05,1e-05,3e-05,7e-05,0.0,-2e-05,-2e-05,1,14.0
2456,-1e-05,-1e-05,1e-05,3e-05,7e-05,0.0,-2e-05,-2e-05,1,14.0
2457,-1e-05,-1e-05,1e-05,3e-05,7e-05,0.0,-2e-05,-2e-05,1,14.0
2458,-1e-05,-1e-05,1e-05,3e-05,7e-05,0.0,-2e-05,-2e-05,1,14.0
2459,-1e-05,-1e-05,1e-05,3e-05,7e-05,0.0,-2e-05,-2e-05,1,14.0
2460,-1e-05,-1e-05,1e-05,3e-05,7e-05,0.0,-2e-05,-2e-05,1,14.0
2461,-1e-05,-1e-05,1e-05,3e-05,7e-05,0.0,-2e-05,-2e-05,1,14.0
2462,-1e-05,-1e-05,1e-05,3e-05,7e-05,0.0,-2e-05,-2e-05,1,14.0
2463,-1e-05,-1e-05,1e-05,3e-05,7e-05,0.0,-2e-05,-2e-05,1,14.0
2464,-1e-05,-1e-05,1e-05,3e-05,7e-05,0.0,-2e-05,-2e-05,1,14.0
2465,-1e-05,-1e-05,1e-05,3e-05,7e-05,0.0,-2e-05,-2e-05,1,14.0
2466,-1e-05,-1e-05,1e-05,3e-05,7e-05,0.0,-2e-05,-2e-05,1,14.0
2467,-1e-05,-2e-05,0.0,0.0,-0.00012,-3e-05,-1e-05,-2e-05,1,14.0
2468,-1e-05,-2e-05,0.0,0.0,-0.00012,-3e-05,-1e-05,-2e-05,1,14.0
2469,0.0,0.0,0.0,-0.0001,3e-05,-2e-05,0.0,-1e-05,1,14.0
2470,0.0,0.0,0.0,-0.0001,3e-05,-2e-05,0.0,-1e-05,1,14.0
2471,0.0,0.0,0.0,-0.0001,3e-05,-2e-05,0.0,-1e-05,1,14.0
2472,0.0,0.0,0.0,-0.0001,3e-05,-2e-05,0.0,-1e-05,1,14.0
2473,0.0,0.0,0.0,-0.0001,3e-05,-2e-05,0.0,-1e-05,1,14.0
2474,0.0,0.0,0.0,-0.0001,3e-05,-2e-05,0.0,-1e-05,1,14.0
2475,0.0,0.0,0.0,-0.0001,3e-05,-2e-05,0.0,-1e-05,1,14.0
2476,0.0,0.0,0.0,-0.0001,3e-05,-2e-05,0.0,-1e-05,1,14.0
2477,0.0,0.0,0.0,-0.0001,3e-05,-2e-05,0.0,-1e-05,1,14.0
2478,0.0,0.0,0.0,-0.0001,3e-05,-2e-05,0.0,-1e-05,1,14.0
2479,0.0,0.0,0.0,-0.0001,3e-05,-2e-05,0.0,-1e-05,1,14.0
2480,0.0,0.0,0.0,-0.0001,3e-05,-2e-05,0.0,-1e-05,1,14.0
2481,0.0,0.0,0.0,-0.0001,3e-05,-2e-05,0.0,-1e-05,1,14.0
2482,0.0,0.0,0.0,-0.0001,3e-05,-2e-05,0.0,-1e-05,1,14.0
2483,0.0,0.0,0.0,-0.0001,3e-05,-2e-05,0.0,-1e-05,1,14.0
2484,0.0,0.0,0.0,-0.0001,3e-05,-2e-05,0.0,-1e-05,1,14.0
2485,0.0,0.0,0.0,-0.0001,3e-05,-2e-05,0.0,-1e-05,1,14.0
2486,0.0,0.0,0.0,-0.0001,3e-05,-2e-05,0.0,-1e-05,1,14.0
2489,0.0,0.0,0.0,-0.0001,3e-05,-2e-05,0.0,-1e-05,1,14.0
2490,0.0,-1e-05,-2e-05,-8e-05,-0.00018,-3e-05,-1e-05,0.0,1,14.0
2491,-1e-05,-1e-05,-5e-05,-5e-05,-8e-05,0.0,-3e-05,-1e-05,1,14.0
2492,-1e-05,-1e-05,-5e-05,-5e-05,-8e-05,0.0,-3e-05,-1e-05,1,14.0
2493,-1e-05,-1e-05,-5e-05,-5e-05,-8e-05,0.0,-3e-05,-1e-05,1,14.0
2494,-1e-05,-1e-05,-5e-05,-5e-05,-8e-05,0.0,-3e-05,-1e-05,1,14.0
2495,-1e-05,-1e-05,-5e-05,-5e-05,-8e-05,0.0,-3e-05,-1e-05,1,14.0
2496,-1e-05,-1e-05,-5e-05,-5e-05,-8e-05,0.0,-3e-05,-1e-05,1,14.0
2497,-1e-05,-1e-05,-5e-05,-5e-05,-8e-05,0.0,-3e-05,-1e-05,1,14.0
2498,-1e-05,-1e-05,-5e-05,-5e-05,-8e-05,0.0,-3e-05,-1e-05,1,14.0
2499,-1e-05,-1e-05,-5e-05,-5e-05,-8e-05,0.0,-3e-05,-1e-05,1,14.0
2500,-1e-05,-1e-05,-5e-05,-5e-05,-8e-05,0.0,-3e-05,-1e-05,1,14.0
2501,-1e-05,-1e-05,-5e-05,-5e-05,-8e-05,0.0,-3e-05,-1e-05,1,14.0
2502,-1e-05,-1e-05,-5e-05,-5e-05,-8e-05,0.0,-3e-05,-1e-05,1,14.0
2503,0.0,-1e-05,-1e-05,0.0,0.00027,-1e-05,0.0,1e-05,1,14.0
2504,0.0,-1e-05,-1e-05,0.0,0.00027,-1e-05,0.0,1e-05,1,14.0
2505,0.0,-1e-05,-1e-05,0.0,0.00027,-1e-05,0.0,1e-05,1,14.0
2506,0.0,-1e-05,-1e-05,0.0,0.00027,-1e-05,0.0,1e-05,1,14.0
2507,0.0,-1e-05,-1e-05,0.0,0.00027,-1e-05,0.0,1e-05,1,14.0
2508,0.0,-1e-05,-1e-05,0.0,0.00027,-1e-05,0.0,1e-05,1,14.0
2510,0.0,-1e-05,-1e-05,0.0,0.00027,-1e-05,0.0,1e-05,1,14.0
2511,0.0,-1e-05,-1e-05,0.0,0.00027,-1e-05,0.0,1e-05,1,14.0
2512,0.0,0.0,1e-05,5e-05,-6e-05,-1e-05,-1e-05,-1e-05,1,14.0
2513,0.0,0.0,1e-05,5e-05,-6e-05,-1e-05,-1e-05,-1e-05,1,14.0
2514,0.0,0.0,1e-05,5e-05,-6e-05,-1e-05,-1e-05,-1e-05,1,14.0
2515,0.0,0.0,1e-05,5e-05,-6e-05,-1e-05,-1e-05,-1e-05,1,14.0
2516,0.0,0.0,1e-05,5e-05,-6e-05,-1e-05,-1e-05,-1e-05,1,14.0
2517,0.0,0.0,1e-05,5e-05,-6e-05,-1e-05,-1e-05,-1e-05,1,14.0
2518,0.0,0.0,1e-05,5e-05,-6e-05,-1e-05,-1e-05,-1e-05,1,14.0
2519,0.0,0.0,1e-05,5e-05,-6e-05,-1e-05,-1e-05,-1e-05,1,14.0
2520,0.0,0.0,1e-05,5e-05,-6e-05,-1e-05,-1e-05,-1e-05,1,14.0
2521,0.0,0.0,1e-05,5e-05,-6e-05,-1e-05,-1e-05,-1e-05,1,14.0
2522,0.0,0.0,1e-05,5e-05,-6e-05,-1e-05,-1e-05,-1e-05,1,14.0
2523,0.0,0.0,1e-05,5e-05,-6e-05,-1e-05,-1e-05,-1e-05,1,14.0
2524,0.0,0.0,1e-05,5e-05,-6e-05,-1e-05,-1e-05,-1e-05,1,14.0
2525,0.0,0.0,1e-05,5e-05,-6e-05,-1e-05,-1e-05,-1e-05,1,14.0
2526,0.0,0.0,1e-05,5e-05,-6e-05,-1e-05,-1e-05,-1e-05,1,14.0
2527,-1e-05,1e-05,2e-05,4e-05,-5e-05,0.0,0.0,-2e-05,1,14.0
2528,-1e-05,1e-05,2e-05,4e-05,-5e-05,0.0,0.0,-2e-05,1,14.0
2529,0.0,2e-05,0.0,4e-05,-0.00024,-2e-05,-1e-05,-3e-05,1,14.0
2530,0.0,2e-05,0.0,4e-05,-0.00024,-2e-05,-1e-05,-3e-05,1,14.0
2531,0.0,2e-05,0.0,4e-05,-0.00024,-2e-05,-1e-05,-3e-05,1,14.0
2532,0.0,2e-05,0.0,4e-05,-0.00024,-2e-05,-1e-05,-3e-05,1,14.0
2533,0.0,2e-05,0.0,4e-05,-0.00024,-2e-05,-1e-05,-3e-05,1,14.0
2534,0.0,2e-05,0.0,4e-05,-0.00024,-2e-05,-1e-05,-3e-05,1,14.0
2535,0.0,2e-05,0.0,4e-05,-0.00024,-2e-05,-1e-05,-3e-05,1,14.0
2536,0.0,2e-05,0.0,4e-05,-0.00024,-2e-05,-1e-05,-3e-05,1,14.0
2539,0.0,2e-05,0.0,4e-05,-0.00024,-2e-05,-1e-05,-3e-05,1,14.0
2540,0.0,2e-05,0.0,4e-05,-0.00024,-2e-05,-1e-05,-3e-05,1,14.0
2541,0.0,2e-05,0.0,4e-05,-0.00024,-2e-05,-1e-05,-3e-05,1,14.0
2542,0.0,2e-05,0.0,4e-05,-0.00024,-2e-05,-1e-05,-3e-05,1,14.0
2543,0.0,2e-05,0.0,4e-05,-0.00024,-2e-05,-1e-05,-3e-05,1,14.0
2544,0.0,2e-05,0.0,4e-05,-0.00024,-2e-05,-1e-05,-3e-05,1,14.0
2545,0.0,2e-05,0.0,4e-05,-0.00024,-2e-05,-1e-05,-3e-05,1,14.0
2546,0.0,2e-05,0.0,4e-05,-0.00024,-2e-05,-1e-05,-3e-05,1,14.0
2547,0.0,2e-05,0.0,4e-05,-0.00024,-2e-05,-1e-05,-3e-05,1,14.0
2548,0.0,2e-05,0.0,4e-05,-0.00024,-2e-05,-1e-05,-3e-05,1,14.0
2549,0.0,2e-05,0.0,4e-05,-0.00024,-2e-05,-1e-05,-3e-05,1,14.0
2550,-3e-05,0.0,2e-05,4e-05,4e-05,2e-05,-2e-05,-1e-05,1,14.0
2551,-1e-05,-1e-05,-2e-05,-0.0001,-0.00017,-5e-05,-2e-05,-1e-05,1,14.0
2552,-1e-05,-1e-05,-2e-05,-0.0001,-0.00017,-5e-05,-2e-05,-1e-05,1,14.0
2553,-1e-05,-1e-05,-2e-05,-0.0001,-0.00017,-5e-05,-2e-05,-1e-05,1,14.0
2554,-1e-05,-1e-05,-2e-05,-0.0001,-0.00017,-5e-05,-2e-05,-1e-05,1,14.0
2555,-1e-05,-1e-05,-2e-05,-0.0001,-0.00017,-5e-05,-2e-05,-1e-05,1,14.0
2556,-1e-05,-1e-05,-2e-05,-0.0001,-0.00017,-5e-05,-2e-05,-1e-05,1,14.0
2557,-1e-05,-1e-05,-2e-05,-0.0001,-0.00017,-5e-05,-2e-05,-1e-05,1,14.0
2558,-1e-05,-1e-05,-2e-05,-0.0001,-0.00017,-5e-05,-2e-05,-1e-05,1,14.0
2559,-1e-05,-1e-05,-2e-05,-0.0001,-0.00017,-5e-05,-2e-05,-1e-05,1,14.0
2560,-1e-05,-1e-05,-2e-05,-0.0001,-0.00017,-5e-05,-2e-05,-1e-05,1,14.0
2561,-1e-05,-1e-05,-2e-05,-0.0001,-0.00017,-5e-05,-2e-05,-1e-05,1,14.0
2562,-1e-05,-1e-05,-2e-05,-0.0001,-0.00017,-5e-05,-2e-05,-1e-05,1,14.0
2563,-1e-05,-1e-05,-2e-05,-0.0001,-0.00017,-5e-05,-2e-05,-1e-05,1,14.0
2564,-1e-05,-1e-05,-2e-05,-0.0001,-0.00017,-5e-05,-2e-05,-1e-05,1,14.0
2565,-1e-05,-1e-05,-2e-05,-0.0001,-0.00017,-5e-05,-2e-05,-1e-05,1,14.0
2566,-1e-05,-1e-05,-2e-05,-0.0001,-0.00017,-5e-05,-2e-05,-1e-05,1,14.0
2567,-1e-05,-1e-05,-2e-05,-0.0001,-0.00017,-5e-05,-2e-05,-1e-05,1,14.0
2568,-1e-05,-1e-05,-2e-05,-0.0001,-0.00017,-5e-05,-2e-05,-1e-05,1,14.0
2569,-1e-05,-1e-05,-2e-05,-0.0001,-0.00017,-5e-05,-2e-05,-1e-05,1,14.0
2570,-1e-05,-1e-05,-2e-05,-0.0001,-0.00017,-5e-05,-2e-05,-1e-05,1,14.0
2571,-1e-05,-1e-05,-2e-05,-0.0001,-0.00017,-5e-05,-2e-05,-1e-05,1,14.0
2572,-1e-05,2e-05,1e-05,1e-05,-8e-05,-1e-05,-2e-05,-1e-05,1,14.0
2573,-1e-05,2e-05,1e-05,1e-05,-8e-05,-1e-05,-2e-05,-1e-05,1,14.0
2574,-1e-05,-2e-05,-2e-05,6e-05,0.00039,0.0,-1e-05,0.0,1,14.0
2575,-1e-05,-2e-05,-2e-05,6e-05,0.00039,0.0,-1e-05,0.0,1,14.0
2576,-1e-05,-2e-05,-2e-05,6e-05,0.00039,0.0,-1e-05,0.0,1,14.0
2577,-1e-05,-2e-05,-2e-05,6e-05,0.00039,0.0,-1e-05,0.0,1,14.0
2578,-1e-05,-2e-05,-2e-05,6e-05,0.00039,0.0,-1e-05,0.0,1,14.0
2579,-1e-05,-2e-05,-2e-05,6e-05,0.00039,0.0,-1e-05,0.0,1,14.0
2580,-1e-05,-2e-05,-2e-05,6e-05,0.00039,0.0,-1e-05,0.0,1,14.0
2581,-1e-05,-2e-05,-2e-05,6e-05,0.00039,0.0,-1e-05,0.0,1,14.0
2582,-1e-05,-2e-05,-2e-05,6e-05,0.00039,0.0,-1e-05,0.0,1,14.0
2583,-1e-05,-2e-05,-2e-05,6e-05,0.00039,0.0,-1e-05,0.0,1,14.0
2584,-1e-05,-2e-05,-2e-05,6e-05,0.00039,0.0,-1e-05,0.0,1,14.0
2585,-1e-05,-2e-05,-2e-05,6e-05,0.00039,0.0,-1e-05,0.0,1,14.0
2586,-1e-05,-2e-05,-2e-05,6e-05,0.00039,0.0,-1e-05,0.0,1,14.0
2589,-1e-05,-2e-05,-6e-05,1e-05,-0.00011,0.0,0.0,-2e-05,1,14.0
2590,-1e-05,-2e-05,-6e-05,1e-05,-0.00011,0.0,0.0,-2e-05,1,14.0
2591,-1e-05,-2e-05,-6e-05,1e-05,-0.00011,0.0,0.0,-2e-05,1,14.0
2592,-1e-05,-2e-05,-6e-05,1e-05,-0.00011,0.0,0.0,-2e-05,1,14.0
2593,-1e-05,-2e-05,-6e-05,1e-05,-0.00011,0.0,0.0,-2e-05,1,14.0
2594,-1e-05,-2e-05,-6e-05,1e-05,-0.00011,0.0,0.0,-2e-05,1,14.0
2595,-1e-05,-2e-05,-6e-05,1e-05,-0.00011,0.0,0.0,-2e-05,1,14.0
2596,-1e-05,-2e-05,-6e-05,1e-05,-0.00011,0.0,0.0,-2e-05,1,14.0
2597,-1e-05,-2e-05,-6e-05,1e-05,-0.00011,0.0,0.0,-2e-05,1,14.0
2598,-1e-05,-2e-05,-6e-05,1e-05,-0.00011,0.0,0.0,-2e-05,1,14.0
2599,-1e-05,-2e-05,-6e-05,1e-05,-0.00011,0.0,0.0,-2e-05,1,14.0
2600,-1e-05,-2e-05,-6e-05,1e-05,-0.00011,0.0,0.0,-2e-05,1,14.0
2601,-1e-05,-2e-05,-6e-05,1e-05,-0.00011,0.0,0.0,-2e-05,1,14.0
2602,-1e-05,-2e-05,-6e-05,1e-05,-0.00011,0.0,0.0,-2e-05,1,14.0
2603,-1e-05,-2e-05,-6e-05,1e-05,-0.00011,0.0,0.0,-2e-05,1,14.0
2604,-1e-05,-2e-05,-6e-05,1e-05,-0.00011,0.0,0.0,-2e-05,1,14.0
2605,-1e-05,-2e-05,-6e-05,1e-05,-0.00011,0.0,0.0,-2e-05,1,14.0
2606,-1e-05,-2e-05,-6e-05,1e-05,-0.00011,0.0,0.0,-2e-05,1,14.0
2607,-1e-05,-2e-05,-6e-05,1e-05,-0.00011,0.0,0.0,-2e-05,1,14.0
2608,-1e-05,-2e-05,-6e-05,1e-05,-0.00011,0.0,0.0,-2e-05,1,14.0
2609,-1e-05,-2e-05,-6e-05,1e-05,-0.00011,0.0,0.0,-2e-05,1,14.0
2610,-1e-05,0.0,-2e-05,-3e-05,-0.00012,-3e-05,0.0,-2e-05,1,14.0
2611,-1e-05,-1e-05,1e-05,1e-05,-1e-05,1e-05,-1e-05,1e-05,1,14.0
2612,-1e-05,-1e-05,1e-05,1e-05,-1e-05,1e-05,-1e-05,1e-05,1,14.0
2613,-1e-05,-1e-05,1e-05,1e-05,-1e-05,1e-05,-1e-05,1e-05,1,14.0
2614,-1e-05,-1e-05,1e-05,1e-05,-1e-05,1e-05,-1e-05,1e-05,1,14.0
2615,-1e-05,-1e-05,1e-05,1e-05,-1e-05,1e-05,-1e-05,1e-05,1,14.0
2616,-1e-05,-1e-05,1e-05,1e-05,-1e-05,1e-05,-1e-05,1e-05,1,14.0
2617,-1e-05,-1e-05,1e-05,1e-05,-1e-05,1e-05,-1e-05,1e-05,1,14.0
2618,-1e-05,-1e-05,1e-05,1e-05,-1e-05,1e-05,-1e-05,1e-05,1,14.0
2619,-1e-05,-1e-05,1e-05,1e-05,-1e-05,1e-05,-1e-05,1e-05,1,14.0
2620,-1e-05,-1e-05,1e-05,1e-05,-1e-05,1e-05,-1e-05,1e-05,1,14.0
2621,-1e-05,-1e-05,1e-05,1e-05,-1e-05,1e-05,-1e-05,1e-05,1,14.0
2622,-1e-05,-1e-05,1e-05,1e-05,-1e-05,1e-05,-1e-05,1e-05,1,14.0
2623,0.0,-1e-05,-5e-05,-8e-05,-3e-05,-2e-05,-2e-05,1e-05,1,14.0
2624,0.0,-1e-05,-5e-05,-8e-05,-3e-05,-2e-05,-2e-05,1e-05,1,14.0
2625,0.0,-1e-05,-5e-05,-8e-05,-3e-05,-2e-05,-2e-05,1e-05,1,14.0
2626,0.0,-1e-05,-5e-05,-8e-05,-3e-05,-2e-05,-2e-05,1e-05,1,14.0
2627,0.0,-1e-05,-5e-05,-8e-05,-3e-05,-2e-05,-2e-05,1e-05,1,14.0
2628,0.0,-1e-05,-5e-05,-8e-05,-3e-05,-2e-05,-2e-05,1e-05,1,14.0
2629,0.0,-1e-05,-5e-05,-8e-05,-3e-05,-2e-05,-2e-05,1e-05,1,14.0
2630,0.0,-1e-05,-5e-05,-8e-05,-3e-05,-2e-05,-2e-05,1e-05,1,14.0
2631,0.0,-1e-05,-5e-05,-8e-05,-3e-05,-2e-05,-2e-05,1e-05,1,14.0
2632,0.0,0.0,2e-05,4e-05,-0.00013,1e-05,0.0,0.0,1,14.0
2633,0.0,0.0,2e-05,4e-05,-0.00013,1e-05,0.0,0.0,1,14.0
2634,0.0,0.0,2e-05,4e-05,-0.00013,1e-05,0.0,0.0,1,14.0
2635,0.0,0.0,2e-05,4e-05,-0.00013,1e-05,0.0,0.0,1,14.0
2636,0.0,0.0,2e-05,4e-05,-0.00013,1e-05,0.0,0.0,1,14.0
2639,0.0,0.0,2e-05,4e-05,-0.00013,1e-05,0.0,0.0,1,14.0
2640,0.0,0.0,2e-05,4e-05,-0.00013,1e-05,0.0,0.0,1,14.0
2641,0.0,0.0,2e-05,4e-05,-0.00013,1e-05,0.0,0.0,1,14.0
2642,0.0,0.0,2e-05,4e-05,-0.00013,1e-05,0.0,0.0,1,14.0
2643,0.0,0.0,2e-05,4e-05,-0.00013,1e-05,0.0,0.0,1,14.0
2644,0.0,0.0,2e-05,4e-05,-0.00013,1e-05,0.0,0.0,1,14.0
2645,0.0,0.0,2e-05,4e-05,-0.00013,1e-05,0.0,0.0,1,14.0
2646,0.0,0.0,2e-05,4e-05,-0.00013,1e-05,0.0,0.0,1,14.0
2647,-1e-05,-1e-05,-3e-05,-0.00017,-0.00026,-2e-05,-1e-05,-1e-05,1,14.0
2649,-2e-05,0.0,0.0,1e-05,-7e-05,0.0,-1e-05,1e-05,1,14.0
2650,-2e-05,0.0,0.0,1e-05,-7e-05,0.0,-1e-05,1e-05,1,14.0
2651,-2e-05,0.0,0.0,1e-05,-7e-05,0.0,-1e-05,1e-05,1,14.0
2652,-2e-05,0.0,0.0,1e-05,-7e-05,0.0,-1e-05,1e-05,1,14.0
2653,-2e-05,0.0,0.0,1e-05,-7e-05,0.0,-1e-05,1e-05,1,14.0
2654,-2e-05,0.0,0.0,1e-05,-7e-05,0.0,-1e-05,1e-05,1,14.0
2655,-2e-05,0.0,0.0,1e-05,-7e-05,0.0,-1e-05,1e-05,1,14.0
2656,-2e-05,0.0,0.0,1e-05,-7e-05,0.0,-1e-05,1e-05,1,14.0
2657,-2e-05,0.0,0.0,1e-05,-7e-05,0.0,-1e-05,1e-05,1,14.0
2658,-2e-05,0.0,0.0,1e-05,-7e-05,0.0,-1e-05,1e-05,1,14.0
2659,-2e-05,0.0,0.0,1e-05,-7e-05,0.0,-1e-05,1e-05,1,14.0
2660,-2e-05,0.0,0.0,1e-05,-7e-05,0.0,-1e-05,1e-05,1,14.0
2661,-2e-05,0.0,0.0,1e-05,-7e-05,0.0,-1e-05,1e-05,1,14.0
2662,-2e-05,0.0,0.0,1e-05,-7e-05,0.0,-1e-05,1e-05,1,14.0
2663,-2e-05,0.0,0.0,1e-05,-7e-05,0.0,-1e-05,1e-05,1,14.0
2664,-2e-05,0.0,0.0,1e-05,-7e-05,0.0,-1e-05,1e-05,1,14.0
2665,-2e-05,0.0,0.0,1e-05,-7e-05,0.0,-1e-05,1e-05,1,14.0
2666,-2e-05,0.0,0.0,1e-05,-7e-05,0.0,-1e-05,1e-05,1,14.0
2667,-2e-05,0.0,0.0,1e-05,-7e-05,0.0,-1e-05,1e-05,1,14.0
2668,-2e-05,0.0,0.0,1e-05,-7e-05,0.0,-1e-05,1e-05,1,14.0
2669,-2e-05,0.0,0.0,1e-05,-7e-05,0.0,-1e-05,1e-05,1,14.0
2670,-1e-05,1e-05,3e-05,5e-05,0.00014,0.0,1e-05,-1e-05,1,14.0
2671,-1e-05,1e-05,3e-05,5e-05,0.00014,0.0,1e-05,-1e-05,1,14.0
2672,-2e-05,-2e-05,0.0,1e-05,0.00016,0.0,0.0,-1e-05,1,14.0
2673,-2e-05,-2e-05,0.0,1e-05,0.00016,0.0,0.0,-1e-05,1,14.0
2674,-2e-05,-2e-05,0.0,1e-05,0.00016,0.0,0.0,-1e-05,1,14.0
2675,-2e-05,-2e-05,0.0,1e-05,0.00016,0.0,0.0,-1e-05,1,14.0
2676,-2e-05,-2e-05,0.0,1e-05,0.00016,0.0,0.0,-1e-05,1,14.0
2677,-2e-05,-2e-05,0.0,1e-05,0.00016,0.0,0.0,-1e-05,1,14.0
2678,-2e-05,-2e-05,0.0,1e-05,0.00016,0.0,0.0,-1e-05,1,14.0
2679,-2e-05,-2e-05,0.0,1e-05,0.00016,0.0,0.0,-1e-05,1,14.0
2680,-2e-05,-2e-05,0.0,1e-05,0.00016,0.0,0.0,-1e-05,1,14.0
2681,-2e-05,-2e-05,0.0,1e-05,0.00016,0.0,0.0,-1e-05,1,14.0
2682,-2e-05,-2e-05,0.0,1e-05,0.00016,0.0,0.0,-1e-05,1,14.0
2683,-3e-05,-5e-05,-5e-05,1e-05,2e-05,0.0,0.0,-2e-05,1,14.0
2684,-3e-05,-5e-05,-5e-05,1e-05,2e-05,0.0,0.0,-2e-05,1,14.0
2685,-3e-05,-5e-05,-5e-05,1e-05,2e-05,0.0,0.0,-2e-05,1,14.0
2686,-3e-05,-5e-05,-5e-05,1e-05,2e-05,0.0,0.0,-2e-05,1,14.0
2688,-3e-05,-5e-05,-5e-05,1e-05,2e-05,0.0,0.0,-2e-05,1,14.0
2689,-3e-05,-5e-05,-5e-05,1e-05,2e-05,0.0,0.0,-2e-05,1,14.0
2690,-3e-05,-5e-05,-5e-05,1e-05,2e-05,0.0,0.0,-2e-05,1,14.0
2691,-3e-05,-5e-05,-5e-05,1e-05,2e-05,0.0,0.0,-2e-05,1,14.0
2692,0.0,0.0,1e-05,-1e-05,-0.00014,2e-05,1e-05,-1e-05,1,14.0
2693,0.0,0.0,1e-05,-1e-05,-0.00014,2e-05,1e-05,-1e-05,1,14.0
2694,0.0,0.0,1e-05,-1e-05,-0.00014,2e-05,1e-05,-1e-05,1,14.0
2696,0.0,0.0,1e-05,-1e-05,-0.00014,2e-05,1e-05,-1e-05,1,14.0
2697,0.0,0.0,1e-05,-1e-05,-0.00014,2e-05,1e-05,-1e-05,1,14.0
2698,0.0,0.0,1e-05,-1e-05,-0.00014,2e-05,1e-05,-1e-05,1,14.0
2699,0.0,0.0,1e-05,-1e-05,-0.00014,2e-05,1e-05,-1e-05,1,14.0
2700,0.0,0.0,1e-05,-1e-05,-0.00014,2e-05,1e-05,-1e-05,1,14.0
2701,0.0,0.0,1e-05,-1e-05,-0.00014,2e-05,1e-05,-1e-05,1,14.0
2702,0.0,0.0,1e-05,-1e-05,-0.00014,2e-05,1e-05,-1e-05,1,14.0
2703,0.0,0.0,1e-05,-1e-05,-0.00014,2e-05,1e-05,-1e-05,1,14.0
2704,0.0,0.0,1e-05,-1e-05,-0.00014,2e-05,1e-05,-1e-05,1,14.0
2705,0.0,0.0,1e-05,-1e-05,-0.00014,2e-05,1e-05,-1e-05,1,14.0
2706,0.0,0.0,1e-05,-1e-05,-0.00014,2e-05,1e-05,-1e-05,1,14.0
2707,-2e-05,-1e-05,0.0,-6e-05,2e-05,-1e-05,-2e-05,0.0,1,14.0
2708,-2e-05,-1e-05,0.0,-6e-05,2e-05,-1e-05,-2e-05,0.0,1,14.0
2709,-2e-05,-2e-05,-2e-05,3e-05,6e-05,-2e-05,-1e-05,0.0,1,14.0
2710,-2e-05,-2e-05,-2e-05,3e-05,6e-05,-2e-05,-1e-05,0.0,1,14.0
2711,-2e-05,-2e-05,-2e-05,3e-05,6e-05,-2e-05,-1e-05,0.0,1,14.0
2712,-2e-05,-2e-05,-2e-05,3e-05,6e-05,-2e-05,-1e-05,0.0,1,14.0
2713,-2e-05,-2e-05,-2e-05,3e-05,6e-05,-2e-05,-1e-05,0.0,1,14.0
2714,-2e-05,-2e-05,-2e-05,3e-05,6e-05,-2e-05,-1e-05,0.0,1,14.0
2715,-2e-05,-2e-05,-2e-05,3e-05,6e-05,-2e-05,-1e-05,0.0,1,14.0
2716,-2e-05,-2e-05,-2e-05,3e-05,6e-05,-2e-05,-1e-05,0.0,1,14.0
2717,-2e-05,-2e-05,-2e-05,3e-05,6e-05,-2e-05,-1e-05,0.0,1,14.0
2718,-2e-05,-2e-05,-2e-05,3e-05,6e-05,-2e-05,-1e-05,0.0,1,14.0
2719,-2e-05,-2e-05,-2e-05,3e-05,6e-05,-2e-05,-1e-05,0.0,1,14.0
2720,-2e-05,-2e-05,-2e-05,3e-05,6e-05,-2e-05,-1e-05,0.0,1,14.0
2721,-2e-05,-2e-05,-2e-05,3e-05,6e-05,-2e-05,-1e-05,0.0,1,14.0
2722,-2e-05,-2e-05,-2e-05,3e-05,6e-05,-2e-05,-1e-05,0.0,1,14.0
2723,-2e-05,-2e-05,-2e-05,3e-05,6e-05,-2e-05,-1e-05,0.0,1,14.0
2724,-2e-05,-2e-05,-2e-05,3e-05,6e-05,-2e-05,-1e-05,0.0,1,14.0
2725,-2e-05,-2e-05,-2e-05,3e-05,6e-05,-2e-05,-1e-05,0.0,1,14.0
2726,-2e-05,-2e-05,-2e-05,3e-05,6e-05,-2e-05,-1e-05,0.0,1,14.0
2727,-2e-05,-2e-05,-2e-05,3e-05,6e-05,-2e-05,-1e-05,0.0,1,14.0
2728,-2e-05,-2e-05,-2e-05,3e-05,6e-05,-2e-05,-1e-05,0.0,1,14.0
2729,-1e-05,-3e-05,-3e-05,-6e-05,-1e-05,-1e-05,1e-05,0.0,1,14.0
2730,1e-05,0.0,2e-05,0.0001,-6e-05,-2e-05,-2e-05,-1e-05,1,14.0
2731,0.0,-1e-05,-1e-05,-3e-05,-0.00011,-2e-05,-2e-05,0.0,1,14.0
2732,0.0,-1e-05,-1e-05,-3e-05,-0.00011,-2e-05,-2e-05,0.0,1,14.0
2733,0.0,-1e-05,-1e-05,-3e-05,-0.00011,-2e-05,-2e-05,0.0,1,14.0
2734,0.0,-1e-05,-1e-05,-3e-05,-0.00011,-2e-05,-2e-05,0.0,1,14.0
2735,0.0,-1e-05,-1e-05,-3e-05,-0.00011,-2e-05,-2e-05,0.0,1,14.0
2736,0.0,-1e-05,-1e-05,-3e-05,-0.00011,-2e-05,-2e-05,0.0,1,14.0
2738,0.0,-1e-05,-1e-05,-3e-05,-0.00011,-2e-05,-2e-05,0.0,1,14.0
2739,0.0,-1e-05,-1e-05,-3e-05,-0.00011,-2e-05,-2e-05,0.0,1,14.0
2740,0.0,-1e-05,-1e-05,-3e-05,-0.00011,-2e-05,-2e-05,0.0,1,14.0
2741,0.0,-1e-05,-1e-05,-3e-05,-0.00011,-2e-05,-2e-05,0.0,1,14.0
2743,0.0,-1e-05,0.0,3e-05,-7e-05,1e-05,0.0,0.0,1,14.0
2744,0.0,-1e-05,0.0,3e-05,-7e-05,1e-05,0.0,0.0,1,14.0
2745,0.0,-1e-05,0.0,3e-05,-7e-05,1e-05,0.0,0.0,1,14.0
2746,0.0,-1e-05,0.0,3e-05,-7e-05,1e-05,0.0,0.0,1,14.0
2747,0.0,-1e-05,0.0,3e-05,-7e-05,1e-05,0.0,0.0,1,14.0
2748,0.0,-1e-05,0.0,3e-05,-7e-05,1e-05,0.0,0.0,1,14.0
2749,0.0,-1e-05,0.0,3e-05,-7e-05,1e-05,0.0,0.0,1,14.0
2750,0.0,-1e-05,0.0,3e-05,-7e-05,1e-05,0.0,0.0,1,14.0
2751,0.0,-1e-05,0.0,3e-05,-7e-05,1e-05,0.0,0.0,1,14.0
2752,0.0,-1e-05,0.0,3e-05,-7e-05,1e-05,0.0,0.0,1,14.0
2753,0.0,-1e-05,0.0,3e-05,-7e-05,1e-05,0.0,0.0,1,14.0
2754,0.0,-1e-05,0.0,3e-05,-7e-05,1e-05,0.0,0.0,1,14.0
2755,0.0,-1e-05,0.0,3e-05,-7e-05,1e-05,0.0,0.0,1,14.0
2756,0.0,-1e-05,0.0,3e-05,-7e-05,1e-05,0.0,0.0,1,14.0
2757,0.0,-1e-05,0.0,3e-05,-7e-05,1e-05,0.0,0.0,1,14.0
2758,0.0,-1e-05,0.0,3e-05,-7e-05,1e-05,0.0,0.0,1,14.0
2759,0.0,-1e-05,0.0,3e-05,-7e-05,1e-05,0.0,0.0,1,14.0
2760,0.0,-1e-05,0.0,3e-05,-7e-05,1e-05,0.0,0.0,1,14.0
2761,1e-05,-2e-05,-1e-05,-2e-05,-0.00011,-3e-05,-1e-05,-1e-05,1,14.0
2762,1e-05,-2e-05,-1e-05,-2e-05,-0.00011,-3e-05,-1e-05,-1e-05,1,14.0
2763,1e-05,-2e-05,-1e-05,-2e-05,-0.00011,-3e-05,-1e-05,-1e-05,1,14.0
2764,1e-05,-2e-05,-1e-05,-2e-05,-0.00011,-3e-05,-1e-05,-1e-05,1,14.0
2765,1e-05,-2e-05,-1e-05,-2e-05,-0.00011,-3e-05,-1e-05,-1e-05,1,14.0
2766,1e-05,-2e-05,-1e-05,-2e-05,-0.00011,-3e-05,-1e-05,-1e-05,1,14.0
2767,-3e-05,-1e-05,0.0,-1e-05,8e-05,-1e-05,-1e-05,0.0,1,14.0
2768,-3e-05,-1e-05,0.0,-1e-05,8e-05,-1e-05,-1e-05,0.0,1,14.0
2769,0.0,-1e-05,2e-05,2e-05,-0.00017,2e-05,2e-05,-1e-05,1,14.0
2771,0.0,-1e-05,2e-05,2e-05,-0.00017,2e-05,2e-05,-1e-05,1,14.0
2772,0.0,-1e-05,2e-05,2e-05,-0.00017,2e-05,2e-05,-1e-05,1,14.0
2773,0.0,-1e-05,2e-05,2e-05,-0.00017,2e-05,2e-05,-1e-05,1,14.0
2774,0.0,-1e-05,2e-05,2e-05,-0.00017,2e-05,2e-05,-1e-05,1,14.0
2775,0.0,-1e-05,2e-05,2e-05,-0.00017,2e-05,2e-05,-1e-05,1,14.0
2776,0.0,-1e-05,2e-05,2e-05,-0.00017,2e-05,2e-05,-1e-05,1,14.0
2777,0.0,-1e-05,2e-05,2e-05,-0.00017,2e-05,2e-05,-1e-05,1,14.0
2778,0.0,-1e-05,2e-05,2e-05,-0.00017,2e-05,2e-05,-1e-05,1,14.0
2779,0.0,-1e-05,2e-05,2e-05,-0.00017,2e-05,2e-05,-1e-05,1,14.0
2780,0.0,-1e-05,2e-05,2e-05,-0.00017,2e-05,2e-05,-1e-05,1,14.0
2781,0.0,-1e-05,2e-05,2e-05,-0.00017,2e-05,2e-05,-1e-05,1,14.0
2782,0.0,-1e-05,2e-05,2e-05,-0.00017,2e-05,2e-05,-1e-05,1,14.0
2783,0.0,-1e-05,2e-05,2e-05,-0.00017,2e-05,2e-05,-1e-05,1,14.0
2784,0.0,-1e-05,2e-05,2e-05,-0.00017,2e-05,2e-05,-1e-05,1,14.0
2785,0.0,-1e-05,2e-05,2e-05,-0.00017,2e-05,2e-05,-1e-05,1,14.0
2786,0.0,-1e-05,2e-05,2e-05,-0.00017,2e-05,2e-05,-1e-05,1,14.0
2788,0.0,-1e-05,2e-05,2e-05,-0.00017,2e-05,2e-05,-1e-05,1,14.0
2789,0.0,-1e-05,2e-05,2e-05,-0.00017,2e-05,2e-05,-1e-05,1,14.0
2790,1e-05,-1e-05,-2e-05,-1e-05,1e-05,-2e-05,-1e-05,-2e-05,1,14.0
2791,-1e-05,0.0,-3e-05,-0.00016,8e-05,-4e-05,-2e-05,-1e-05,1,14.0
2792,-1e-05,0.0,-3e-05,-0.00016,8e-05,-4e-05,-2e-05,-1e-05,1,14.0
2793,-1e-05,0.0,-3e-05,-0.00016,8e-05,-4e-05,-2e-05,-1e-05,1,14.0
2794,-1e-05,0.0,-3e-05,-0.00016,8e-05,-4e-05,-2e-05,-1e-05,1,14.0
2795,-1e-05,0.0,-3e-05,-0.00016,8e-05,-4e-05,-2e-05,-1e-05,1,14.0
2796,-1e-05,0.0,-3e-05,-0.00016,8e-05,-4e-05,-2e-05,-1e-05,1,14.0
2797,-1e-05,0.0,-3e-05,-0.00016,8e-05,-4e-05,-2e-05,-1e-05,1,14.0
2798,-1e-05,0.0,-3e-05,-0.00016,8e-05,-4e-05,-2e-05,-1e-05,1,14.0
2799,-1e-05,0.0,-3e-05,-0.00016,8e-05,-4e-05,-2e-05,-1e-05,1,14.0
2800,-1e-05,0.0,-3e-05,-0.00016,8e-05,-4e-05,-2e-05,-1e-05,1,14.0
2801,-1e-05,0.0,-3e-05,-0.00016,8e-05,-4e-05,-2e-05,-1e-05,1,14.0
2802,-1e-05,0.0,-3e-05,-0.00016,8e-05,-4e-05,-2e-05,-1e-05,1,14.0
2803,-1e-05,0.0,-3e-05,-0.00016,8e-05,-4e-05,-2e-05,-1e-05,1,14.0
2804,0.0,-2e-05,0.0,-5e-05,-8e-05,0.0,-1e-05,-1e-05,1,14.0
2805,0.0,-2e-05,0.0,-5e-05,-8e-05,0.0,-1e-05,-1e-05,1,14.0
2806,0.0,-2e-05,0.0,-5e-05,-8e-05,0.0,-1e-05,-1e-05,1,14.0
2807,0.0,-2e-05,0.0,-5e-05,-8e-05,0.0,-1e-05,-1e-05,1,14.0
2808,0.0,-2e-05,0.0,-5e-05,-8e-05,0.0,-1e-05,-1e-05,1,14.0
2809,0.0,-2e-05,0.0,-5e-05,-8e-05,0.0,-1e-05,-1e-05,1,14.0
2810,0.0,-2e-05,0.0,-5e-05,-8e-05,0.0,-1e-05,-1e-05,1,14.0
2811,0.0,-2e-05,0.0,-5e-05,-8e-05,0.0,-1e-05,-1e-05,1,14.0
2812,-1e-05,-1e-05,1e-05,3e-05,0.00026,2e-05,0.0,-1e-05,1,14.0
2813,-1e-05,-1e-05,1e-05,3e-05,0.00026,2e-05,0.0,-1e-05,1,14.0
2814,-1e-05,-1e-05,1e-05,3e-05,0.00026,2e-05,0.0,-1e-05,1,14.0
2815,-1e-05,-1e-05,1e-05,3e-05,0.00026,2e-05,0.0,-1e-05,1,14.0
2816,-1e-05,-1e-05,1e-05,3e-05,0.00026,2e-05,0.0,-1e-05,1,14.0
2817,-1e-05,-1e-05,1e-05,3e-05,0.00026,2e-05,0.0,-1e-05,1,14.0
2818,-1e-05,-1e-05,1e-05,3e-05,0.00026,2e-05,0.0,-1e-05,1,14.0
2819,-1e-05,-1e-05,1e-05,3e-05,0.00026,2e-05,0.0,-1e-05,1,14.0
2820,-1e-05,-1e-05,1e-05,3e-05,0.00026,2e-05,0.0,-1e-05,1,14.0
2821,-1e-05,-1e-05,1e-05,3e-05,0.00026,2e-05,0.0,-1e-05,1,14.0
2822,-1e-05,-1e-05,1e-05,3e-05,0.00026,2e-05,0.0,-1e-05,1,14.0
2823,-1e-05,-1e-05,1e-05,3e-05,0.00026,2e-05,0.0,-1e-05,1,14.0
2824,-1e-05,-1e-05,1e-05,3e-05,0.00026,2e-05,0.0,-1e-05,1,14.0
2825,-1e-05,-1e-05,1e-05,3e-05,0.00026,2e-05,0.0,-1e-05,1,14.0
2826,-1e-05,-1e-05,1e-05,3e-05,0.00026,2e-05,0.0,-1e-05,1,14.0
2827,0.0,-3e-05,-7e-05,-5e-05,-0.00027,-2e-05,-1e-05,1e-05,1,14.0
2828,0.0,-3e-05,-7e-05,-5e-05,-0.00027,-2e-05,-1e-05,1e-05,1,14.0
2829,1e-05,1e-05,-2e-05,-4e-05,-0.00013,-1e-05,-2e-05,-1e-05,1,14.0
2830,1e-05,1e-05,-2e-05,-4e-05,-0.00013,-1e-05,-2e-05,-1e-05,1,14.0
2831,1e-05,1e-05,-2e-05,-4e-05,-0.00013,-1e-05,-2e-05,-1e-05,1,14.0
2832,1e-05,1e-05,-2e-05,-4e-05,-0.00013,-1e-05,-2e-05,-1e-05,1,14.0
2833,1e-05,1e-05,-2e-05,-4e-05,-0.00013,-1e-05,-2e-05,-1e-05,1,14.0
2834,1e-05,1e-05,-2e-05,-4e-05,-0.00013,-1e-05,-2e-05,-1e-05,1,14.0
2835,1e-05,1e-05,-2e-05,-4e-05,-0.00013,-1e-05,-2e-05,-1e-05,1,14.0
2836,1e-05,1e-05,-2e-05,-4e-05,-0.00013,-1e-05,-2e-05,-1e-05,1,14.0
2838,1e-05,1e-05,-2e-05,-4e-05,-0.00013,-1e-05,-2e-05,-1e-05,1,14.0
2839,1e-05,1e-05,-2e-05,-4e-05,-0.00013,-1e-05,-2e-05,-1e-05,1,14.0
2840,1e-05,1e-05,-2e-05,-4e-05,-0.00013,-1e-05,-2e-05,-1e-05,1,14.0
2841,1e-05,1e-05,-2e-05,-4e-05,-0.00013,-1e-05,-2e-05,-1e-05,1,14.0
2842,1e-05,1e-05,-2e-05,-4e-05,-0.00013,-1e-05,-2e-05,-1e-05,1,14.0
2843,1e-05,1e-05,-2e-05,-4e-05,-0.00013,-1e-05,-2e-05,-1e-05,1,14.0
2844,1e-05,1e-05,-2e-05,-4e-05,-0.00013,-1e-05,-2e-05,-1e-05,1,14.0
2845,1e-05,1e-05,-2e-05,-4e-05,-0.00013,-1e-05,-2e-05,-1e-05,1,14.0
2846,1e-05,1e-05,-2e-05,-4e-05,-0.00013,-1e-05,-2e-05,-1e-05,1,14.0
2847,1e-05,1e-05,-2e-05,-4e-05,-0.00013,-1e-05,-2e-05,-1e-05,1,14.0
2848,1e-05,1e-05,-2e-05,-4e-05,-0.00013,-1e-05,-2e-05,-1e-05,1,14.0
2849,-1e-05,-1e-05,1e-05,-2e-05,-0.00011,-2e-05,1e-05,-3e-05,1,14.0
2850,-2e-05,1e-05,-1e-05,4e-05,0.00025,-1e-05,0.0,-2e-05,1,14.0
2851,0.0,2e-05,1e-05,0.0001,-0.00012,-4e-05,-2e-05,-1e-05,1,14.0
2852,0.0,2e-05,1e-05,0.0001,-0.00012,-4e-05,-2e-05,-1e-05,1,14.0
2853,0.0,2e-05,1e-05,0.0001,-0.00012,-4e-05,-2e-05,-1e-05,1,14.0
2854,0.0,2e-05,1e-05,0.0001,-0.00012,-4e-05,-2e-05,-1e-05,1,14.0
2855,0.0,2e-05,1e-05,0.0001,-0.00012,-4e-05,-2e-05,-1e-05,1,14.0
2856,0.0,2e-05,1e-05,0.0001,-0.00012,-4e-05,-2e-05,-1e-05,1,14.0
2857,0.0,2e-05,1e-05,0.0001,-0.00012,-4e-05,-2e-05,-1e-05,1,14.0
2858,0.0,2e-05,1e-05,0.0001,-0.00012,-4e-05,-2e-05,-1e-05,1,14.0
2859,0.0,2e-05,1e-05,0.0001,-0.00012,-4e-05,-2e-05,-1e-05,1,14.0
2860,0.0,2e-05,1e-05,0.0001,-0.00012,-4e-05,-2e-05,-1e-05,1,14.0
2861,0.0,2e-05,1e-05,0.0001,-0.00012,-4e-05,-2e-05,-1e-05,1,14.0
2862,0.0,2e-05,1e-05,0.0001,-0.00012,-4e-05,-2e-05,-1e-05,1,14.0
2863,-1e-05,-1e-05,-2e-05,0.0,9e-05,2e-05,-1e-05,-1e-05,1,14.0
2864,-1e-05,-1e-05,-2e-05,0.0,9e-05,2e-05,-1e-05,-1e-05,1,14.0
2865,-1e-05,-1e-05,-2e-05,0.0,9e-05,2e-05,-1e-05,-1e-05,1,14.0
2866,-1e-05,-1e-05,-2e-05,0.0,9e-05,2e-05,-1e-05,-1e-05,1,14.0
2867,-1e-05,-1e-05,-2e-05,0.0,9e-05,2e-05,-1e-05,-1e-05,1,14.0
2868,-1e-05,-1e-05,-2e-05,0.0,9e-05,2e-05,-1e-05,-1e-05,1,14.0
2869,-1e-05,-1e-05,-2e-05,0.0,9e-05,2e-05,-1e-05,-1e-05,1,14.0
2870,-1e-05,-1e-05,-2e-05,0.0,9e-05,2e-05,-1e-05,-1e-05,1,14.0
2871,-1e-05,-1e-05,-2e-05,0.0,9e-05,2e-05,-1e-05,-1e-05,1,14.0
2872,-1e-05,-1e-05,1e-05,3e-05,-0.00016,1e-05,0.0,-2e-05,1,14.0
2873,-1e-05,-1e-05,1e-05,3e-05,-0.00016,1e-05,0.0,-2e-05,1,14.0
2874,-1e-05,-1e-05,1e-05,3e-05,-0.00016,1e-05,0.0,-2e-05,1,14.0
2875,-1e-05,-1e-05,1e-05,3e-05,-0.00016,1e-05,0.0,-2e-05,1,14.0
2876,-1e-05,-1e-05,1e-05,3e-05,-0.00016,1e-05,0.0,-2e-05,1,14.0
2877,-1e-05,-1e-05,1e-05,3e-05,-0.00016,1e-05,0.0,-2e-05,1,14.0
2878,-1e-05,-1e-05,1e-05,3e-05,-0.00016,1e-05,0.0,-2e-05,1,14.0
2879,-1e-05,-1e-05,1e-05,3e-05,-0.00016,1e-05,0.0,-2e-05,1,14.0
2880,-1e-05,-1e-05,1e-05,3e-05,-0.00016,1e-05,0.0,-2e-05,1,14.0
2881,-1e-05,-1e-05,1e-05,3e-05,-0.00016,1e-05,0.0,-2e-05,1,14.0
2882,-1e-05,-1e-05,1e-05,3e-05,-0.00016,1e-05,0.0,-2e-05,1,14.0
2883,-1e-05,-1e-05,1e-05,3e-05,-0.00016,1e-05,0.0,-2e-05,1,14.0
2884,-1e-05,-1e-05,1e-05,3e-05,-0.00016,1e-05,0.0,-2e-05,1,14.0
2885,-1e-05,-1e-05,1e-05,3e-05,-0.00016,1e-05,0.0,-2e-05,1,14.0
2886,-1e-05,-1e-05,1e-05,3e-05,-0.00016,1e-05,0.0,-2e-05,1,14.0
2889,-2e-05,-1e-05,-1e-05,0.0,-5e-05,-2e-05,0.0,-2e-05,1,14.0
2890,-2e-05,-1e-05,-1e-05,0.0,-5e-05,-2e-05,0.0,-2e-05,1,14.0
2891,-2e-05,-1e-05,-1e-05,0.0,-5e-05,-2e-05,0.0,-2e-05,1,14.0
2892,-2e-05,-1e-05,-1e-05,0.0,-5e-05,-2e-05,0.0,-2e-05,1,14.0
2893,-2e-05,-1e-05,-1e-05,0.0,-5e-05,-2e-05,0.0,-2e-05,1,14.0
2894,-2e-05,-1e-05,-1e-05,0.0,-5e-05,-2e-05,0.0,-2e-05,1,14.0
2895,-2e-05,-1e-05,-1e-05,0.0,-5e-05,-2e-05,0.0,-2e-05,1,14.0
2896,-2e-05,-1e-05,-1e-05,0.0,-5e-05,-2e-05,0.0,-2e-05,1,14.0
2897,-2e-05,-1e-05,-1e-05,0.0,-5e-05,-2e-05,0.0,-2e-05,1,14.0
2898,-2e-05,-1e-05,-1e-05,0.0,-5e-05,-2e-05,0.0,-2e-05,1,14.0
2899,-2e-05,-1e-05,-1e-05,0.0,-5e-05,-2e-05,0.0,-2e-05,1,14.0
2900,-2e-05,-1e-05,-1e-05,0.0,-5e-05,-2e-05,0.0,-2e-05,1,14.0
2901,-2e-05,-1e-05,-1e-05,0.0,-5e-05,-2e-05,0.0,-2e-05,1,14.0
2902,-2e-05,-1e-05,-1e-05,0.0,-5e-05,-2e-05,0.0,-2e-05,1,14.0
2903,-2e-05,-1e-05,-1e-05,0.0,-5e-05,-2e-05,0.0,-2e-05,1,14.0
2904,-2e-05,-1e-05,-1e-05,0.0,-5e-05,-2e-05,0.0,-2e-05,1,14.0
2905,-2e-05,-1e-05,-1e-05,0.0,-5e-05,-2e-05,0.0,-2e-05,1,14.0
2906,-2e-05,-1e-05,-1e-05,0.0,-5e-05,-2e-05,0.0,-2e-05,1,14.0
2907,-2e-05,-1e-05,-1e-05,0.0,-5e-05,-2e-05,0.0,-2e-05,1,14.0
2908,-2e-05,-1e-05,-1e-05,0.0,-5e-05,-2e-05,0.0,-2e-05,1,14.0
2909,-1e-05,0.0,-1e-05,-8e-05,0.00024,-2e-05,-3e-05,-2e-05,1,14.0
2910,0.0,-3e-05,-6e-05,-6e-05,-0.00023,2e-05,1e-05,-2e-05,1,14.0
2911,0.0,-5e-05,-6e-05,-4e-05,5e-05,-1e-05,-1e-05,-1e-05,1,14.0
2912,0.0,-5e-05,-6e-05,-4e-05,5e-05,-1e-05,-1e-05,-1e-05,1,14.0
2913,0.0,-5e-05,-6e-05,-4e-05,5e-05,-1e-05,-1e-05,-1e-05,1,14.0
2914,0.0,-5e-05,-6e-05,-4e-05,5e-05,-1e-05,-1e-05,-1e-05,1,14.0
2915,0.0,-5e-05,-6e-05,-4e-05,5e-05,-1e-05,-1e-05,-1e-05,1,14.0
2916,0.0,-5e-05,-6e-05,-4e-05,5e-05,-1e-05,-1e-05,-1e-05,1,14.0
2917,0.0,-5e-05,-6e-05,-4e-05,5e-05,-1e-05,-1e-05,-1e-05,1,14.0
2918,0.0,-5e-05,-6e-05,-4e-05,5e-05,-1e-05,-1e-05,-1e-05,1,14.0
2919,0.0,-5e-05,-6e-05,-4e-05,5e-05,-1e-05,-1e-05,-1e-05,1,14.0
2920,0.0,-5e-05,-6e-05,-4e-05,5e-05,-1e-05,-1e-05,-1e-05,1,14.0
2921,0.0,-5e-05,-6e-05,-4e-05,5e-05,-1e-05,-1e-05,-1e-05,1,14.0
2922,0.0,-5e-05,-6e-05,-4e-05,5e-05,-1e-05,-1e-05,-1e-05,1,14.0
2923,0.0,0.0,4e-05,1e-05,0.00015,-3e-05,-2e-05,-1e-05,1,14.0
2924,0.0,0.0,4e-05,1e-05,0.00015,-3e-05,-2e-05,-1e-05,1,14.0
2925,0.0,0.0,4e-05,1e-05,0.00015,-3e-05,-2e-05,-1e-05,1,14.0
2926,0.0,0.0,4e-05,1e-05,0.00015,-3e-05,-2e-05,-1e-05,1,14.0
2927,0.0,0.0,4e-05,1e-05,0.00015,-3e-05,-2e-05,-1e-05,1,14.0
2928,0.0,0.0,4e-05,1e-05,0.00015,-3e-05,-2e-05,-1e-05,1,14.0
2929,0.0,0.0,4e-05,1e-05,0.00015,-3e-05,-2e-05,-1e-05,1,14.0
2930,0.0,0.0,4e-05,1e-05,0.00015,-3e-05,-2e-05,-1e-05,1,14.0
2931,0.0,0.0,4e-05,1e-05,0.00015,-3e-05,-2e-05,-1e-05,1,14.0
2932,-1e-05,0.0,-5e-05,6e-05,3e-05,2e-05,2e-05,0.0,1,14.0
2933,-1e-05,0.0,-5e-05,6e-05,3e-05,2e-05,2e-05,0.0,1,14.0
2934,-1e-05,0.0,-5e-05,6e-05,3e-05,2e-05,2e-05,0.0,1,14.0
2935,-1e-05,0.0,-5e-05,6e-05,3e-05,2e-05,2e-05,0.0,1,14.0
2936,-1e-05,0.0,-5e-05,6e-05,3e-05,2e-05,2e-05,0.0,1,14.0
2938,-1e-05,0.0,-5e-05,6e-05,3e-05,2e-05,2e-05,0.0,1,14.0
2939,-1e-05,0.0,-5e-05,6e-05,3e-05,2e-05,2e-05,0.0,1,14.0
2940,-1e-05,0.0,-5e-05,6e-05,3e-05,2e-05,2e-05,0.0,1,14.0
2941,-1e-05,0.0,-5e-05,6e-05,3e-05,2e-05,2e-05,0.0,1,14.0
2942,-1e-05,0.0,-5e-05,6e-05,3e-05,2e-05,2e-05,0.0,1,14.0
2943,-1e-05,0.0,-5e-05,6e-05,3e-05,2e-05,2e-05,0.0,1,14.0
2944,-1e-05,0.0,-5e-05,6e-05,3e-05,2e-05,2e-05,0.0,1,14.0
2945,-1e-05,0.0,-5e-05,6e-05,3e-05,2e-05,2e-05,0.0,1,14.0
2946,-1e-05,0.0,-5e-05,6e-05,3e-05,2e-05,2e-05,0.0,1,14.0
2947,0.0,0.0,0.0,1e-05,0.0,1e-05,-3e-05,0.0,1,14.0
2948,0.0,0.0,0.0,1e-05,0.0,1e-05,-3e-05,0.0,1,14.0
2949,-2e-05,-3e-05,-3e-05,0.0,0.00028,2e-05,-1e-05,-1e-05,1,14.0
2950,-2e-05,-3e-05,-3e-05,0.0,0.00028,2e-05,-1e-05,-1e-05,1,14.0
2951,-2e-05,-3e-05,-3e-05,0.0,0.00028,2e-05,-1e-05,-1e-05,1,14.0
2952,-2e-05,-3e-05,-3e-05,0.0,0.00028,2e-05,-1e-05,-1e-05,1,14.0
2953,-2e-05,-3e-05,-3e-05,0.0,0.00028,2e-05,-1e-05,-1e-05,1,14.0
2954,-2e-05,-3e-05,-3e-05,0.0,0.00028,2e-05,-1e-05,-1e-05,1,14.0
2955,-2e-05,-3e-05,-3e-05,0.0,0.00028,2e-05,-1e-05,-1e-05,1,14.0
2956,-2e-05,-3e-05,-3e-05,0.0,0.00028,2e-05,-1e-05,-1e-05,1,14.0
2957,-2e-05,-3e-05,-3e-05,0.0,0.00028,2e-05,-1e-05,-1e-05,1,14.0
2958,-2e-05,-3e-05,-3e-05,0.0,0.00028,2e-05,-1e-05,-1e-05,1,14.0
2959,-2e-05,-3e-05,-3e-05,0.0,0.00028,2e-05,-1e-05,-1e-05,1,14.0
2960,-2e-05,-3e-05,-3e-05,0.0,0.00028,2e-05,-1e-05,-1e-05,1,14.0
2961,-2e-05,-3e-05,-3e-05,0.0,0.00028,2e-05,-1e-05,-1e-05,1,14.0
2962,-2e-05,-3e-05,-3e-05,0.0,0.00028,2e-05,-1e-05,-1e-05,1,14.0
2963,-2e-05,-3e-05,-3e-05,0.0,0.00028,2e-05,-1e-05,-1e-05,1,14.0
2964,-2e-05,-3e-05,-3e-05,0.0,0.00028,2e-05,-1e-05,-1e-05,1,14.0
2965,-2e-05,-3e-05,-3e-05,0.0,0.00028,2e-05,-1e-05,-1e-05,1,14.0
2966,-2e-05,-3e-05,-3e-05,0.0,0.00028,2e-05,-1e-05,-1e-05,1,14.0
2967,-2e-05,-3e-05,-3e-05,0.0,0.00028,2e-05,-1e-05,-1e-05,1,14.0
2968,-2e-05,-3e-05,-3e-05,0.0,0.00028,2e-05,-1e-05,-1e-05,1,14.0
2969,-2e-05,-2e-05,-2e-05,6e-05,-0.00019,-1e-05,-2e-05,-1e-05,1,14.0
2970,0.0,0.0,2e-05,3e-05,7e-05,-3e-05,0.0,-1e-05,1,14.0
2971,-1e-05,1e-05,-1e-05,-4e-05,-4e-05,-4e-05,-2e-05,-2e-05,1,14.0
2972,-1e-05,1e-05,-1e-05,-4e-05,-4e-05,-4e-05,-2e-05,-2e-05,1,14.0
2973,-1e-05,1e-05,-1e-05,-4e-05,-4e-05,-4e-05,-2e-05,-2e-05,1,14.0
2974,-1e-05,1e-05,-1e-05,-4e-05,-4e-05,-4e-05,-2e-05,-2e-05,1,14.0
2975,-1e-05,1e-05,-1e-05,-4e-05,-4e-05,-4e-05,-2e-05,-2e-05,1,14.0
2976,-1e-05,1e-05,-1e-05,-4e-05,-4e-05,-4e-05,-2e-05,-2e-05,1,14.0
2977,-1e-05,1e-05,-1e-05,-4e-05,-4e-05,-4e-05,-2e-05,-2e-05,1,14.0
2978,-1e-05,1e-05,-1e-05,-4e-05,-4e-05,-4e-05,-2e-05,-2e-05,1,14.0
2979,-1e-05,1e-05,-1e-05,-4e-05,-4e-05,-4e-05,-2e-05,-2e-05,1,14.0
2980,-1e-05,1e-05,-1e-05,-4e-05,-4e-05,-4e-05,-2e-05,-2e-05,1,14.0
2981,-1e-05,1e-05,-1e-05,-4e-05,-4e-05,-4e-05,-2e-05,-2e-05,1,14.0
2982,-1e-05,1e-05,-1e-05,-4e-05,-4e-05,-4e-05,-2e-05,-2e-05,1,14.0
2983,-1e-05,1e-05,-1e-05,-4e-05,-4e-05,-4e-05,-2e-05,-2e-05,1,14.0
2984,-1e-05,1e-05,-1e-05,-4e-05,-4e-05,-4e-05,-2e-05,-2e-05,1,14.0
2985,-1e-05,1e-05,-1e-05,-4e-05,-4e-05,-4e-05,-2e-05,-2e-05,1,14.0
2986,-1e-05,1e-05,-1e-05,-4e-05,-4e-05,-4e-05,-2e-05,-2e-05,1,14.0
2988,-1e-05,1e-05,-1e-05,-4e-05,-4e-05,-4e-05,-2e-05,-2e-05,1,14.0
2989,-1e-05,1e-05,-1e-05,-4e-05,-4e-05,-4e-05,-2e-05,-2e-05,1,14.0
2990,-1e-05,1e-05,-1e-05,-4e-05,-4e-05,-4e-05,-2e-05,-2e-05,1,14.0
2991,-1e-05,1e-05,-1e-05,-4e-05,-4e-05,-4e-05,-2e-05,-2e-05,1,14.0
2992,0.0,-1e-05,-1e-05,4e-05,-0.00022,0.0,2e-05,0.0,1,14.0
2993,0.0,-1e-05,-1e-05,4e-05,-0.00022,0.0,2e-05,0.0,1,14.0
2994,-2e-05,-3e-05,-5e-05,-4e-05,-0.0002,-2e-05,1e-05,0.0,1,14.0
2996,-2e-05,-3e-05,-5e-05,-4e-05,-0.0002,-2e-05,1e-05,0.0,1,14.0
2997,-2e-05,-3e-05,-5e-05,-4e-05,-0.0002,-2e-05,1e-05,0.0,1,14.0
2998,-2e-05,-3e-05,-5e-05,-4e-05,-0.0002,-2e-05,1e-05,0.0,1,14.0
2999,-2e-05,-3e-05,-5e-05,-4e-05,-0.0002,-2e-05,1e-05,0.0,1,14.0
3000,-2e-05,-3e-05,-5e-05,-4e-05,-0.0002,-2e-05,1e-05,0.0,1,14.0
3001,-2e-05,-3e-05,-5e-05,-4e-05,-0.0002,-2e-05,1e-05,0.0,1,14.0
3002,-2e-05,-3e-05,-5e-05,-4e-05,-0.0002,-2e-05,1e-05,0.0,1,14.0
3003,-2e-05,-3e-05,-5e-05,-4e-05,-0.0002,-2e-05,1e-05,0.0,1,14.0
3004,-2e-05,-3e-05,-5e-05,-4e-05,-0.0002,-2e-05,1e-05,0.0,1,14.0
3005,-2e-05,-3e-05,-5e-05,-4e-05,-0.0002,-2e-05,1e-05,0.0,1,14.0
3006,-2e-05,-3e-05,-5e-05,-4e-05,-0.0002,-2e-05,1e-05,0.0,1,14.0
3007,-1e-05,-2e-05,-1e-05,1e-05,8e-05,-4e-05,-1e-05,-2e-05,1,14.0
3008,-1e-05,-2e-05,-1e-05,1e-05,8e-05,-4e-05,-1e-05,-2e-05,1,14.0
3009,-1e-05,-3e-05,-3e-05,-0.00016,6e-05,0.0,-1e-05,-1e-05,1,14.0
3010,-1e-05,-3e-05,-3e-05,-0.00016,6e-05,0.0,-1e-05,-1e-05,1,14.0
3011,-1e-05,-3e-05,-3e-05,-0.00016,6e-05,0.0,-1e-05,-1e-05,1,14.0
3012,-1e-05,-3e-05,-3e-05,-0.00016,6e-05,0.0,-1e-05,-1e-05,1,14.0
3013,-1e-05,-3e-05,-3e-05,-0.00016,6e-05,0.0,-1e-05,-1e-05,1,14.0
3014,-1e-05,-3e-05,-3e-05,-0.00016,6e-05,0.0,-1e-05,-1e-05,1,14.0
3015,-1e-05,-3e-05,-3e-05,-0.00016,6e-05,0.0,-1e-05,-1e-05,1,14.0
3016,-1e-05,-3e-05,-3e-05,-0.00016,6e-05,0.0,-1e-05,-1e-05,1,14.0
3017,-1e-05,-3e-05,-3e-05,-0.00016,6e-05,0.0,-1e-05,-1e-05,1,14.0
3018,-1e-05,-3e-05,-3e-05,-0.00016,6e-05,0.0,-1e-05,-1e-05,1,14.0
3019,-1e-05,-3e-05,-3e-05,-0.00016,6e-05,0.0,-1e-05,-1e-05,1,14.0
3020,-1e-05,-3e-05,-3e-05,-0.00016,6e-05,0.0,-1e-05,-1e-05,1,14.0
3021,-1e-05,-3e-05,-3e-05,-0.00016,6e-05,0.0,-1e-05,-1e-05,1,14.0
3022,-1e-05,-3e-05,-3e-05,-0.00016,6e-05,0.0,-1e-05,-1e-05,1,14.0
3023,-1e-05,-3e-05,-3e-05,-0.00016,6e-05,0.0,-1e-05,-1e-05,1,14.0
3024,-1e-05,-3e-05,-3e-05,-0.00016,6e-05,0.0,-1e-05,-1e-05,1,14.0
3025,-1e-05,-3e-05,-3e-05,-0.00016,6e-05,0.0,-1e-05,-1e-05,1,14.0
3026,-1e-05,-3e-05,-3e-05,-0.00016,6e-05,0.0,-1e-05,-1e-05,1,14.0
3027,-1e-05,-3e-05,-3e-05,-0.00016,6e-05,0.0,-1e-05,-1e-05,1,14.0
3028,-1e-05,-3e-05,-3e-05,-0.00016,6e-05,0.0,-1e-05,-1e-05,1,14.0
3029,-1e-05,-3e-05,-3e-05,-0.00016,6e-05,0.0,-1e-05,-1e-05,1,14.0
3030,-1e-05,-3e-05,-3e-05,-0.00016,6e-05,0.0,-1e-05,-1e-05,1,14.0
3031,-1e-05,-3e-05,-3e-05,-0.00016,6e-05,0.0,-1e-05,-1e-05,1,14.0
3032,-1e-05,-3e-05,-3e-05,-0.00016,6e-05,0.0,-1e-05,-1e-05,1,14.0
3033,-1e-05,-3e-05,-3e-05,-0.00016,6e-05,0.0,-1e-05,-1e-05,1,14.0
3034,-1e-05,-3e-05,-3e-05,-0.00016,6e-05,0.0,-1e-05,-1e-05,1,14.0
3035,-1e-05,-3e-05,-3e-05,-0.00016,6e-05,0.0,-1e-05,-1e-05,1,14.0
3036,-1e-05,-3e-05,-3e-05,-0.00016,6e-05,0.0,-1e-05,-1e-05,1,14.0
3039,3e-05,0.0,-1e-05,-1e-05,3e-05,2e-05,-2e-05,-1e-05,1,14.0
3040,0.0,1e-05,5e-05,7e-05,-0.00015,-5e-05,-1e-05,0.0,1,14.0
3041,0.0,1e-05,5e-05,7e-05,-0.00015,-5e-05,-1e-05,0.0,1,14.0
3042,0.0,1e-05,5e-05,7e-05,-0.00015,-5e-05,-1e-05,0.0,1,14.0
3043,0.0,1e-05,5e-05,7e-05,-0.00015,-5e-05,-1e-05,0.0,1,14.0
3044,0.0,1e-05,5e-05,7e-05,-0.00015,-5e-05,-1e-05,0.0,1,14.0
3045,0.0,1e-05,5e-05,7e-05,-0.00015,-5e-05,-1e-05,0.0,1,14.0
3046,0.0,1e-05,5e-05,7e-05,-0.00015,-5e-05,-1e-05,0.0,1,14.0
3047,0.0,1e-05,5e-05,7e-05,-0.00015,-5e-05,-1e-05,0.0,1,14.0
3048,0.0,1e-05,5e-05,7e-05,-0.00015,-5e-05,-1e-05,0.0,1,14.0
3049,0.0,1e-05,5e-05,7e-05,-0.00015,-5e-05,-1e-05,0.0,1,14.0
3050,0.0,1e-05,5e-05,7e-05,-0.00015,-5e-05,-1e-05,0.0,1,14.0
3051,0.0,1e-05,5e-05,7e-05,-0.00015,-5e-05,-1e-05,0.0,1,14.0
3052,-2e-05,-5e-05,-8e-05,-9e-05,-4e-05,-1e-05,-1e-05,0.0,1,14.0
3053,-2e-05,-5e-05,-8e-05,-9e-05,-4e-05,-1e-05,-1e-05,0.0,1,14.0
3054,-1e-05,-1e-05,2e-05,-3e-05,-0.00029,0.0,-3e-05,-3e-05,1,14.0
3055,-1e-05,-1e-05,2e-05,-3e-05,-0.00029,0.0,-3e-05,-3e-05,1,14.0
3056,-1e-05,-1e-05,2e-05,-3e-05,-0.00029,0.0,-3e-05,-3e-05,1,14.0
3057,-1e-05,-1e-05,2e-05,-3e-05,-0.00029,0.0,-3e-05,-3e-05,1,14.0
3058,-1e-05,-1e-05,2e-05,-3e-05,-0.00029,0.0,-3e-05,-3e-05,1,14.0
3059,-1e-05,-1e-05,2e-05,-3e-05,-0.00029,0.0,-3e-05,-3e-05,1,14.0
3060,-1e-05,-1e-05,2e-05,-3e-05,-0.00029,0.0,-3e-05,-3e-05,1,14.0
3061,-1e-05,-1e-05,2e-05,-3e-05,-0.00029,0.0,-3e-05,-3e-05,1,14.0
3062,-1e-05,-1e-05,2e-05,-3e-05,-0.00029,0.0,-3e-05,-3e-05,1,14.0
3063,-1e-05,-1e-05,2e-05,-3e-05,-0.00029,0.0,-3e-05,-3e-05,1,14.0
3064,-1e-05,-1e-05,2e-05,-3e-05,-0.00029,0.0,-3e-05,-3e-05,1,14.0
3065,-1e-05,-1e-05,2e-05,-3e-05,-0.00029,0.0,-3e-05,-3e-05,1,14.0
3066,-1e-05,-1e-05,2e-05,-3e-05,-0.00029,0.0,-3e-05,-3e-05,1,14.0
3067,0.0,0.0,2e-05,-1e-05,0.00027,-2e-05,-1e-05,-2e-05,1,14.0
3068,0.0,0.0,2e-05,-1e-05,0.00027,-2e-05,-1e-05,-2e-05,1,14.0
3069,-2e-05,-2e-05,-1e-05,3e-05,0.00012,-2e-05,-2e-05,-2e-05,1,14.0
3070,-2e-05,-2e-05,-1e-05,3e-05,0.00012,-2e-05,-2e-05,-2e-05,1,14.0
3071,-2e-05,-2e-05,-1e-05,3e-05,0.00012,-2e-05,-2e-05,-2e-05,1,14.0
3072,-2e-05,-2e-05,-1e-05,3e-05,0.00012,-2e-05,-2e-05,-2e-05,1,14.0
3073,-2e-05,-2e-05,-1e-05,3e-05,0.00012,-2e-05,-2e-05,-2e-05,1,14.0
3074,-2e-05,-2e-05,-1e-05,3e-05,0.00012,-2e-05,-2e-05,-2e-05,1,14.0
3075,-2e-05,-2e-05,-1e-05,3e-05,0.00012,-2e-05,-2e-05,-2e-05,1,14.0
3076,-2e-05,-2e-05,-1e-05,3e-05,0.00012,-2e-05,-2e-05,-2e-05,1,14.0
3077,-2e-05,-2e-05,-1e-05,3e-05,0.00012,-2e-05,-2e-05,-2e-05,1,14.0
3078,-2e-05,-2e-05,-1e-05,3e-05,0.00012,-2e-05,-2e-05,-2e-05,1,14.0
3079,-2e-05,-2e-05,-1e-05,3e-05,0.00012,-2e-05,-2e-05,-2e-05,1,14.0
3080,-2e-05,-2e-05,-1e-05,3e-05,0.00012,-2e-05,-2e-05,-2e-05,1,14.0
3081,-2e-05,-2e-05,-1e-05,3e-05,0.00012,-2e-05,-2e-05,-2e-05,1,14.0
3082,-2e-05,-2e-05,-1e-05,3e-05,0.00012,-2e-05,-2e-05,-2e-05,1,14.0
3083,-2e-05,-2e-05,-1e-05,3e-05,0.00012,-2e-05,-2e-05,-2e-05,1,14.0
3084,-2e-05,-2e-05,-1e-05,3e-05,0.00012,-2e-05,-2e-05,-2e-05,1,14.0
3085,-2e-05,-2e-05,-1e-05,3e-05,0.00012,-2e-05,-2e-05,-2e-05,1,14.0
3086,-2e-05,-2e-05,-1e-05,3e-05,0.00012,-2e-05,-2e-05,-2e-05,1,14.0
3088,-2e-05,-2e-05,-1e-05,3e-05,0.00012,-2e-05,-2e-05,-2e-05,1,14.0
3089,0.0,-1e-05,-1e-05,0.0,-5e-05,-6e-05,-2e-05,-2e-05,1,14.0
3090,-4e-05,-2e-05,-4e-05,-6e-05,-2e-05,1e-05,0.0,-1e-05,1,14.0
3091,0.0,-1e-05,2e-05,-9e-05,-0.00013,-4e-05,-2e-05,0.0,1,14.0
3092,0.0,-1e-05,2e-05,-9e-05,-0.00013,-4e-05,-2e-05,0.0,1,14.0
3093,0.0,-1e-05,2e-05,-9e-05,-0.00013,-4e-05,-2e-05,0.0,1,14.0
3094,0.0,-1e-05,2e-05,-9e-05,-0.00013,-4e-05,-2e-05,0.0,1,14.0
3095,0.0,-1e-05,2e-05,-9e-05,-0.00013,-4e-05,-2e-05,0.0,1,14.0
3096,0.0,-1e-05,2e-05,-9e-05,-0.00013,-4e-05,-2e-05,0.0,1,14.0
3097,0.0,-1e-05,2e-05,-9e-05,-0.00013,-4e-05,-2e-05,0.0,1,14.0
3098,0.0,-1e-05,2e-05,-9e-05,-0.00013,-4e-05,-2e-05,0.0,1,14.0
3099,0.0,-1e-05,2e-05,-9e-05,-0.00013,-4e-05,-2e-05,0.0,1,14.0
3100,0.0,-1e-05,2e-05,-9e-05,-0.00013,-4e-05,-2e-05,0.0,1,14.0
3101,0.0,-1e-05,2e-05,-9e-05,-0.00013,-4e-05,-2e-05,0.0,1,14.0
3102,0.0,-1e-05,2e-05,-9e-05,-0.00013,-4e-05,-2e-05,0.0,1,14.0
3103,0.0,-1e-05,2e-05,-9e-05,-0.00013,-4e-05,-2e-05,0.0,1,14.0
3104,0.0,-1e-05,2e-05,-9e-05,-0.00013,-4e-05,-2e-05,0.0,1,14.0
3105,0.0,-1e-05,2e-05,-9e-05,-0.00013,-4e-05,-2e-05,0.0,1,14.0
3106,0.0,-1e-05,2e-05,-9e-05,-0.00013,-4e-05,-2e-05,0.0,1,14.0
3107,0.0,-1e-05,2e-05,-9e-05,-0.00013,-4e-05,-2e-05,0.0,1,14.0
3108,0.0,-1e-05,2e-05,-9e-05,-0.00013,-4e-05,-2e-05,0.0,1,14.0
3109,0.0,-1e-05,2e-05,-9e-05,-0.00013,-4e-05,-2e-05,0.0,1,14.0
3110,0.0,-1e-05,2e-05,-9e-05,-0.00013,-4e-05,-2e-05,0.0,1,14.0
3111,0.0,-1e-05,2e-05,-9e-05,-0.00013,-4e-05,-2e-05,0.0,1,14.0
3112,0.0,-1e-05,2e-05,2e-05,-8e-05,-2e-05,-1e-05,-2e-05,1,14.0
3113,0.0,-1e-05,2e-05,2e-05,-8e-05,-2e-05,-1e-05,-2e-05,1,14.0
3114,-2e-05,-2e-05,-1e-05,6e-05,0.00028,0.0,0.0,-1e-05,1,14.0
3115,-2e-05,-2e-05,-1e-05,6e-05,0.00028,0.0,0.0,-1e-05,1,14.0
3116,-2e-05,-2e-05,-1e-05,6e-05,0.00028,0.0,0.0,-1e-05,1,14.0
3117,-2e-05,-2e-05,-1e-05,6e-05,0.00028,0.0,0.0,-1e-05,1,14.0
3118,-2e-05,-2e-05,-1e-05,6e-05,0.00028,0.0,0.0,-1e-05,1,14.0
3119,-2e-05,-2e-05,-1e-05,6e-05,0.00028,0.0,0.0,-1e-05,1,14.0
3120,-2e-05,-2e-05,-1e-05,6e-05,0.00028,0.0,0.0,-1e-05,1,14.0
3121,-2e-05,-2e-05,-1e-05,6e-05,0.00028,0.0,0.0,-1e-05,1,14.0
3122,-2e-05,-2e-05,-1e-05,6e-05,0.00028,0.0,0.0,-1e-05,1,14.0
3123,-2e-05,-2e-05,-1e-05,6e-05,0.00028,0.0,0.0,-1e-05,1,14.0
3124,-2e-05,-2e-05,-1e-05,6e-05,0.00028,0.0,0.0,-1e-05,1,14.0
3125,-2e-05,-2e-05,-1e-05,6e-05,0.00028,0.0,0.0,-1e-05,1,14.0
3126,-3e-05,-2e-05,-2e-05,1e-05,-0.0003,-1e-05,-2e-05,-3e-05,1,14.0
3127,-1e-05,1e-05,-2e-05,1e-05,7e-05,-2e-05,-2e-05,-1e-05,1,14.0
3128,-1e-05,1e-05,-2e-05,1e-05,7e-05,-2e-05,-2e-05,-1e-05,1,14.0
3129,-1e-05,1e-05,-2e-05,1e-05,7e-05,-2e-05,-2e-05,-1e-05,1,14.0
3130,-1e-05,1e-05,-2e-05,1e-05,7e-05,-2e-05,-2e-05,-1e-05,1,14.0
3131,-1e-05,1e-05,-2e-05,1e-05,7e-05,-2e-05,-2e-05,-1e-05,1,14.0
3132,-1e-05,1e-05,-2e-05,1e-05,7e-05,-2e-05,-2e-05,-1e-05,1,14.0
3133,0.0,2e-05,2e-05,4e-05,8e-05,1e-05,0.0,1e-05,1,14.0
3134,0.0,2e-05,2e-05,4e-05,8e-05,1e-05,0.0,1e-05,1,14.0
3135,0.0,2e-05,2e-05,4e-05,8e-05,1e-05,0.0,1e-05,1,14.0
3136,0.0,2e-05,2e-05,4e-05,8e-05,1e-05,0.0,1e-05,1,14.0
3138,0.0,2e-05,2e-05,4e-05,8e-05,1e-05,0.0,1e-05,1,14.0
3139,0.0,2e-05,2e-05,4e-05,8e-05,1e-05,0.0,1e-05,1,14.0
3140,0.0,2e-05,2e-05,4e-05,8e-05,1e-05,0.0,1e-05,1,14.0
3141,0.0,2e-05,2e-05,4e-05,8e-05,1e-05,0.0,1e-05,1,14.0
3142,0.0,2e-05,2e-05,4e-05,8e-05,1e-05,0.0,1e-05,1,14.0
3143,0.0,2e-05,2e-05,4e-05,8e-05,1e-05,0.0,1e-05,1,14.0
3144,0.0,2e-05,2e-05,4e-05,8e-05,1e-05,0.0,1e-05,1,14.0
3145,0.0,2e-05,2e-05,4e-05,8e-05,1e-05,0.0,1e-05,1,14.0
3146,0.0,2e-05,2e-05,4e-05,8e-05,1e-05,0.0,1e-05,1,14.0
3147,0.0,2e-05,2e-05,4e-05,8e-05,1e-05,0.0,1e-05,1,14.0
3148,0.0,2e-05,2e-05,4e-05,8e-05,1e-05,0.0,1e-05,1,14.0
3149,0.0,2e-05,2e-05,4e-05,8e-05,1e-05,0.0,1e-05,1,14.0
3150,-1e-05,-1e-05,1e-05,-1e-05,0.00012,-1e-05,-3e-05,-1e-05,1,14.0
3151,-1e-05,-2e-05,-2e-05,-4e-05,-1e-05,-2e-05,0.0,-2e-05,1,14.0
3152,-1e-05,-2e-05,-2e-05,-4e-05,-1e-05,-2e-05,0.0,-2e-05,1,14.0
3153,-1e-05,-2e-05,-2e-05,-4e-05,-1e-05,-2e-05,0.0,-2e-05,1,14.0
3154,-1e-05,-2e-05,-2e-05,-4e-05,-1e-05,-2e-05,0.0,-2e-05,1,14.0
3155,-1e-05,-2e-05,-2e-05,-4e-05,-1e-05,-2e-05,0.0,-2e-05,1,14.0
3156,-1e-05,-2e-05,-2e-05,-4e-05,-1e-05,-2e-05,0.0,-2e-05,1,14.0
3157,-1e-05,-2e-05,-2e-05,-4e-05,-1e-05,-2e-05,0.0,-2e-05,1,14.0
3158,-1e-05,-2e-05,-2e-05,-4e-05,-1e-05,-2e-05,0.0,-2e-05,1,14.0
3159,-1e-05,-2e-05,-2e-05,-4e-05,-1e-05,-2e-05,0.0,-2e-05,1,14.0
3160,-1e-05,-2e-05,-2e-05,-4e-05,-1e-05,-2e-05,0.0,-2e-05,1,14.0
3161,-1e-05,-2e-05,-2e-05,-4e-05,-1e-05,-2e-05,0.0,-2e-05,1,14.0
3162,-1e-05,-2e-05,-2e-05,-4e-05,-1e-05,-2e-05,0.0,-2e-05,1,14.0
3163,-1e-05,-2e-05,-2e-05,-4e-05,-1e-05,-2e-05,0.0,-2e-05,1,14.0
3164,-1e-05,-2e-05,-2e-05,-4e-05,-1e-05,-2e-05,0.0,-2e-05,1,14.0
3165,-1e-05,-2e-05,-2e-05,-4e-05,-1e-05,-2e-05,0.0,-2e-05,1,14.0
3166,-1e-05,-2e-05,-2e-05,-4e-05,-1e-05,-2e-05,0.0,-2e-05,1,14.0
3167,-1e-05,-2e-05,-2e-05,-4e-05,-1e-05,-2e-05,0.0,-2e-05,1,14.0
3168,-1e-05,-2e-05,-2e-05,-4e-05,-1e-05,-2e-05,0.0,-2e-05,1,14.0
3169,-1e-05,-2e-05,-2e-05,-4e-05,-1e-05,-2e-05,0.0,-2e-05,1,14.0
3170,-1e-05,-2e-05,-2e-05,-4e-05,-1e-05,-2e-05,0.0,-2e-05,1,14.0
3171,-1e-05,-2e-05,-2e-05,-4e-05,-1e-05,-2e-05,0.0,-2e-05,1,14.0
3172,-1e-05,-2e-05,-2e-05,-4e-05,-1e-05,-2e-05,0.0,-2e-05,1,14.0
3173,-1e-05,-1e-05,1e-05,7e-05,-0.00021,0.0,1e-05,-1e-05,1,14.0
3174,-2e-05,0.0,-5e-05,-6e-05,3e-05,-2e-05,-1e-05,-3e-05,1,14.0
3175,-2e-05,0.0,-5e-05,-6e-05,3e-05,-2e-05,-1e-05,-3e-05,1,14.0
3176,-2e-05,0.0,-5e-05,-6e-05,3e-05,-2e-05,-1e-05,-3e-05,1,14.0
3177,-2e-05,0.0,-5e-05,-6e-05,3e-05,-2e-05,-1e-05,-3e-05,1,14.0
3178,-2e-05,0.0,-5e-05,-6e-05,3e-05,-2e-05,-1e-05,-3e-05,1,14.0
3179,-2e-05,0.0,-5e-05,-6e-05,3e-05,-2e-05,-1e-05,-3e-05,1,14.0
3180,-2e-05,0.0,-5e-05,-6e-05,3e-05,-2e-05,-1e-05,-3e-05,1,14.0
3181,-2e-05,0.0,-5e-05,-6e-05,3e-05,-2e-05,-1e-05,-3e-05,1,14.0
3182,-2e-05,0.0,-5e-05,-6e-05,3e-05,-2e-05,-1e-05,-3e-05,1,14.0
3183,-2e-05,0.0,-5e-05,-6e-05,3e-05,-2e-05,-1e-05,-3e-05,1,14.0
3184,-2e-05,0.0,-5e-05,-6e-05,3e-05,-2e-05,-1e-05,-3e-05,1,14.0
3185,-2e-05,0.0,-5e-05,-6e-05,3e-05,-2e-05,-1e-05,-3e-05,1,14.0
3186,0.0,-1e-05,-4e-05,0.0,-0.0001,-2e-05,-1e-05,0.0,1,14.0
3188,0.0,-1e-05,-4e-05,0.0,-0.0001,-2e-05,-1e-05,0.0,1,14.0
3189,0.0,-1e-05,-4e-05,0.0,-0.0001,-2e-05,-1e-05,0.0,1,14.0
3190,0.0,-1e-05,-4e-05,0.0,-0.0001,-2e-05,-1e-05,0.0,1,14.0
3191,0.0,-1e-05,-4e-05,0.0,-0.0001,-2e-05,-1e-05,0.0,1,14.0
3192,0.0,-1e-05,-4e-05,0.0,-0.0001,-2e-05,-1e-05,0.0,1,14.0
3193,0.0,0.0,-2e-05,-3e-05,0.00016,0.0,0.0,-1e-05,1,14.0
3194,0.0,0.0,-2e-05,-3e-05,0.00016,0.0,0.0,-1e-05,1,14.0
3195,0.0,0.0,-2e-05,-3e-05,0.00016,0.0,0.0,-1e-05,1,14.0
3196,0.0,0.0,-2e-05,-3e-05,0.00016,0.0,0.0,-1e-05,1,14.0
3197,0.0,0.0,-2e-05,-3e-05,0.00016,0.0,0.0,-1e-05,1,14.0
3198,0.0,0.0,-2e-05,-3e-05,0.00016,0.0,0.0,-1e-05,1,14.0
3199,0.0,0.0,-2e-05,-3e-05,0.00016,0.0,0.0,-1e-05,1,14.0
3200,0.0,0.0,-2e-05,-3e-05,0.00016,0.0,0.0,-1e-05,1,14.0
3201,0.0,0.0,-2e-05,-3e-05,0.00016,0.0,0.0,-1e-05,1,14.0
3202,0.0,0.0,-2e-05,-3e-05,0.00016,0.0,0.0,-1e-05,1,14.0
3203,0.0,0.0,-2e-05,-3e-05,0.00016,0.0,0.0,-1e-05,1,14.0
3204,0.0,0.0,-2e-05,-3e-05,0.00016,0.0,0.0,-1e-05,1,14.0
3205,0.0,0.0,-2e-05,-3e-05,0.00016,0.0,0.0,-1e-05,1,14.0
3206,0.0,0.0,-2e-05,-3e-05,0.00016,0.0,0.0,-1e-05,1,14.0
3207,0.0,0.0,-2e-05,-3e-05,0.00016,0.0,0.0,-1e-05,1,14.0
3208,0.0,0.0,-2e-05,-3e-05,0.00016,0.0,0.0,-1e-05,1,14.0
3209,-1e-05,-1e-05,4e-05,-2e-05,0.00011,0.0,1e-05,-1e-05,1,14.0
3210,-1e-05,-1e-05,4e-05,-2e-05,0.00011,0.0,1e-05,-1e-05,1,14.0
3211,-1e-05,-1e-05,4e-05,-2e-05,0.00011,0.0,1e-05,-1e-05,1,14.0
3212,-1e-05,-4e-05,-4e-05,-3e-05,-5e-05,-2e-05,-2e-05,0.0,1,14.0
3213,-1e-05,-4e-05,-4e-05,-3e-05,-5e-05,-2e-05,-2e-05,0.0,1,14.0
3214,-1e-05,-4e-05,-4e-05,-3e-05,-5e-05,-2e-05,-2e-05,0.0,1,14.0
3215,-1e-05,-4e-05,-4e-05,-3e-05,-5e-05,-2e-05,-2e-05,0.0,1,14.0
3216,-1e-05,-4e-05,-4e-05,-3e-05,-5e-05,-2e-05,-2e-05,0.0,1,14.0
3217,-1e-05,-4e-05,-4e-05,-3e-05,-5e-05,-2e-05,-2e-05,0.0,1,14.0
3218,-1e-05,-4e-05,-4e-05,-3e-05,-5e-05,-2e-05,-2e-05,0.0,1,14.0
3219,-1e-05,-4e-05,-4e-05,-3e-05,-5e-05,-2e-05,-2e-05,0.0,1,14.0
3220,-1e-05,-4e-05,-4e-05,-3e-05,-5e-05,-2e-05,-2e-05,0.0,1,14.0
3221,-1e-05,-4e-05,-4e-05,-3e-05,-5e-05,-2e-05,-2e-05,0.0,1,14.0
3222,-1e-05,-4e-05,-4e-05,-3e-05,-5e-05,-2e-05,-2e-05,0.0,1,14.0
3223,-1e-05,-4e-05,-4e-05,-3e-05,-5e-05,-2e-05,-2e-05,0.0,1,14.0
3224,-1e-05,-4e-05,-4e-05,-3e-05,-5e-05,-2e-05,-2e-05,0.0,1,14.0
3225,-1e-05,-4e-05,-4e-05,-3e-05,-5e-05,-2e-05,-2e-05,0.0,1,14.0
3226,-1e-05,-4e-05,-4e-05,-3e-05,-5e-05,-2e-05,-2e-05,0.0,1,14.0
3227,-1e-05,-4e-05,-4e-05,-3e-05,-5e-05,-2e-05,-2e-05,0.0,1,14.0
3228,-1e-05,-4e-05,-4e-05,-3e-05,-5e-05,-2e-05,-2e-05,0.0,1,14.0
3229,-1e-05,-4e-05,-4e-05,-3e-05,-5e-05,-2e-05,-2e-05,0.0,1,14.0
3230,-1e-05,-4e-05,-4e-05,-3e-05,-5e-05,-2e-05,-2e-05,0.0,1,14.0
3231,-1e-05,-4e-05,-4e-05,-3e-05,-5e-05,-2e-05,-2e-05,0.0,1,14.0
3232,0.0,0.0,0.0,-3e-05,-2e-05,-2e-05,0.0,0.0,1,14.0
3233,0.0,0.0,0.0,-3e-05,-2e-05,-2e-05,0.0,0.0,1,14.0
3234,-1e-05,-2e-05,-3e-05,-4e-05,-0.00013,0.0,0.0,-2e-05,1,14.0
3235,-1e-05,-2e-05,-3e-05,-4e-05,-0.00013,0.0,0.0,-2e-05,1,14.0
3236,-1e-05,-2e-05,-3e-05,-4e-05,-0.00013,0.0,0.0,-2e-05,1,14.0
3238,-1e-05,-2e-05,-3e-05,-4e-05,-0.00013,0.0,0.0,-2e-05,1,14.0
3239,-1e-05,-2e-05,-3e-05,-4e-05,-0.00013,0.0,0.0,-2e-05,1,14.0
3240,-1e-05,-2e-05,-3e-05,-4e-05,-0.00013,0.0,0.0,-2e-05,1,14.0
3241,-1e-05,-2e-05,-3e-05,-4e-05,-0.00013,0.0,0.0,-2e-05,1,14.0
3242,-1e-05,-2e-05,-3e-05,-4e-05,-0.00013,0.0,0.0,-2e-05,1,14.0
3243,-1e-05,-2e-05,-3e-05,-4e-05,-0.00013,0.0,0.0,-2e-05,1,14.0
3244,-1e-05,-2e-05,-3e-05,-4e-05,-0.00013,0.0,0.0,-2e-05,1,14.0
3245,-1e-05,-2e-05,-3e-05,-4e-05,-0.00013,0.0,0.0,-2e-05,1,14.0
3246,0.0,-1e-05,-3e-05,-5e-05,0.00022,-2e-05,-1e-05,-1e-05,1,14.0
3247,-2e-05,0.0,-4e-05,-6e-05,-0.00023,-2e-05,0.0,1e-05,1,14.0
3248,-2e-05,0.0,-4e-05,-6e-05,-0.00023,-2e-05,0.0,1e-05,1,14.0
3249,-2e-05,0.0,-4e-05,-6e-05,-0.00023,-2e-05,0.0,1e-05,1,14.0
3250,-2e-05,0.0,-4e-05,-6e-05,-0.00023,-2e-05,0.0,1e-05,1,14.0
3251,-2e-05,0.0,-4e-05,-6e-05,-0.00023,-2e-05,0.0,1e-05,1,14.0
3252,-2e-05,0.0,-4e-05,-6e-05,-0.00023,-2e-05,0.0,1e-05,1,14.0
3253,-1e-05,-1e-05,2e-05,3e-05,0.0001,0.0,-2e-05,-3e-05,1,14.0
3254,-1e-05,-1e-05,2e-05,3e-05,0.0001,0.0,-2e-05,-3e-05,1,14.0
3255,-1e-05,-1e-05,2e-05,3e-05,0.0001,0.0,-2e-05,-3e-05,1,14.0
3256,-1e-05,-1e-05,2e-05,3e-05,0.0001,0.0,-2e-05,-3e-05,1,14.0
3257,-1e-05,-1e-05,2e-05,3e-05,0.0001,0.0,-2e-05,-3e-05,1,14.0
3258,-1e-05,-1e-05,2e-05,3e-05,0.0001,0.0,-2e-05,-3e-05,1,14.0
3259,-1e-05,-1e-05,2e-05,3e-05,0.0001,0.0,-2e-05,-3e-05,1,14.0
3260,-1e-05,-1e-05,2e-05,3e-05,0.0001,0.0,-2e-05,-3e-05,1,14.0
3261,-1e-05,-1e-05,2e-05,3e-05,0.0001,0.0,-2e-05,-3e-05,1,14.0
3262,-1e-05,-1e-05,2e-05,3e-05,0.0001,0.0,-2e-05,-3e-05,1,14.0
3263,-1e-05,-1e-05,2e-05,3e-05,0.0001,0.0,-2e-05,-3e-05,1,14.0
3264,-1e-05,-1e-05,2e-05,3e-05,0.0001,0.0,-2e-05,-3e-05,1,14.0
3265,-1e-05,-1e-05,2e-05,3e-05,0.0001,0.0,-2e-05,-3e-05,1,14.0
3266,-1e-05,-1e-05,2e-05,3e-05,0.0001,0.0,-2e-05,-3e-05,1,14.0
3267,-1e-05,-1e-05,2e-05,3e-05,0.0001,0.0,-2e-05,-3e-05,1,14.0
3268,-1e-05,-1e-05,2e-05,3e-05,0.0001,0.0,-2e-05,-3e-05,1,14.0
3269,-1e-05,-1e-05,2e-05,3e-05,0.0001,0.0,-2e-05,-3e-05,1,14.0
3270,0.0,-1e-05,0.0,-2e-05,7e-05,0.0,-2e-05,-1e-05,1,14.0
3271,0.0,-2e-05,1e-05,7e-05,-5e-05,1e-05,0.0,-1e-05,1,14.0
3272,0.0,-2e-05,1e-05,7e-05,-5e-05,1e-05,0.0,-1e-05,1,14.0
3273,0.0,-2e-05,1e-05,7e-05,-5e-05,1e-05,0.0,-1e-05,1,14.0
3274,0.0,-2e-05,1e-05,7e-05,-5e-05,1e-05,0.0,-1e-05,1,14.0
3275,0.0,-2e-05,1e-05,7e-05,-5e-05,1e-05,0.0,-1e-05,1,14.0
3276,0.0,-2e-05,1e-05,7e-05,-5e-05,1e-05,0.0,-1e-05,1,14.0
3277,0.0,-2e-05,1e-05,7e-05,-5e-05,1e-05,0.0,-1e-05,1,14.0
3278,0.0,-2e-05,1e-05,7e-05,-5e-05,1e-05,0.0,-1e-05,1,14.0
3279,0.0,-2e-05,1e-05,7e-05,-5e-05,1e-05,0.0,-1e-05,1,14.0
3280,0.0,-2e-05,1e-05,7e-05,-5e-05,1e-05,0.0,-1e-05,1,14.0
3281,0.0,-2e-05,1e-05,7e-05,-5e-05,1e-05,0.0,-1e-05,1,14.0
3282,0.0,-2e-05,1e-05,7e-05,-5e-05,1e-05,0.0,-1e-05,1,14.0
3283,0.0,-2e-05,1e-05,7e-05,-5e-05,1e-05,0.0,-1e-05,1,14.0
3284,0.0,-2e-05,1e-05,7e-05,-5e-05,1e-05,0.0,-1e-05,1,14.0
3285,0.0,-2e-05,1e-05,7e-05,-5e-05,1e-05,0.0,-1e-05,1,14.0
3286,0.0,-2e-05,1e-05,7e-05,-5e-05,1e-05,0.0,-1e-05,1,14.0
3288,0.0,-2e-05,1e-05,7e-05,-5e-05,1e-05,0.0,-1e-05,1,14.0
3289,0.0,-2e-05,1e-05,7e-05,-5e-05,1e-05,0.0,-1e-05,1,14.0
3290,0.0,-2e-05,1e-05,7e-05,-5e-05,1e-05,0.0,-1e-05,1,14.0
3291,0.0,-2e-05,1e-05,7e-05,-5e-05,1e-05,0.0,-1e-05,1,14.0
3292,-2e-05,-3e-05,-1e-05,-1e-05,4e-05,-2e-05,-2e-05,-1e-05,1,14.0
3293,-2e-05,-3e-05,-1e-05,-1e-05,4e-05,-2e-05,-2e-05,-1e-05,1,14.0
3294,1e-05,-1e-05,-2e-05,0.0,-0.00028,-2e-05,2e-05,0.0,1,14.0
3295,1e-05,-1e-05,-2e-05,0.0,-0.00028,-2e-05,2e-05,0.0,1,14.0
3296,1e-05,-1e-05,-2e-05,0.0,-0.00028,-2e-05,2e-05,0.0,1,14.0
3297,1e-05,-1e-05,-2e-05,0.0,-0.00028,-2e-05,2e-05,0.0,1,14.0
3298,1e-05,-1e-05,-2e-05,0.0,-0.00028,-2e-05,2e-05,0.0,1,14.0
3299,1e-05,-1e-05,-2e-05,0.0,-0.00028,-2e-05,2e-05,0.0,1,14.0
3300,1e-05,-1e-05,-2e-05,0.0,-0.00028,-2e-05,2e-05,0.0,1,14.0
3301,1e-05,-1e-05,-2e-05,0.0,-0.00028,-2e-05,2e-05,0.0,1,14.0
3302,1e-05,-1e-05,-2e-05,0.0,-0.00028,-2e-05,2e-05,0.0,1,14.0
3303,1e-05,-1e-05,-2e-05,0.0,-0.00028,-2e-05,2e-05,0.0,1,14.0
3305,1e-05,-1e-05,-2e-05,0.0,-0.00028,-2e-05,2e-05,0.0,1,14.0
3306,1e-05,-1e-05,-2e-05,0.0,-0.00028,-2e-05,2e-05,0.0,1,14.0
3307,0.0,0.0,2e-05,0.0,-1e-05,-2e-05,0.0,0.0,1,14.0
3308,0.0,0.0,2e-05,0.0,-1e-05,-2e-05,0.0,0.0,1,14.0
3309,0.0,0.0,2e-05,0.0,-1e-05,-2e-05,0.0,0.0,1,14.0
3310,0.0,0.0,2e-05,0.0,-1e-05,-2e-05,0.0,0.0,1,14.0
3311,0.0,0.0,2e-05,0.0,-1e-05,-2e-05,0.0,0.0,1,14.0
3312,0.0,0.0,2e-05,0.0,-1e-05,-2e-05,0.0,0.0,1,14.0
3313,0.0,0.0,2e-05,0.0,-1e-05,-2e-05,0.0,0.0,1,14.0
3314,0.0,0.0,2e-05,0.0,-1e-05,-2e-05,0.0,0.0,1,14.0
3315,0.0,-1e-05,-3e-05,-6e-05,-0.00016,-1e-05,-1e-05,0.0,1,14.0
3316,0.0,-1e-05,-3e-05,-6e-05,-0.00016,-1e-05,-1e-05,0.0,1,14.0
3317,0.0,-1e-05,-3e-05,-6e-05,-0.00016,-1e-05,-1e-05,0.0,1,14.0
3318,0.0,-1e-05,-3e-05,-6e-05,-0.00016,-1e-05,-1e-05,0.0,1,14.0
3319,0.0,-1e-05,-3e-05,-6e-05,-0.00016,-1e-05,-1e-05,0.0,1,14.0
3320,0.0,-1e-05,-3e-05,-6e-05,-0.00016,-1e-05,-1e-05,0.0,1,14.0
3321,0.0,-1e-05,-3e-05,-6e-05,-0.00016,-1e-05,-1e-05,0.0,1,14.0
3322,0.0,-1e-05,-3e-05,-6e-05,-0.00016,-1e-05,-1e-05,0.0,1,14.0
3323,0.0,-1e-05,-3e-05,-6e-05,-0.00016,-1e-05,-1e-05,0.0,1,14.0
3324,0.0,-1e-05,-3e-05,-6e-05,-0.00016,-1e-05,-1e-05,0.0,1,14.0
3325,0.0,-1e-05,-3e-05,-6e-05,-0.00016,-1e-05,-1e-05,0.0,1,14.0
3326,0.0,-1e-05,-3e-05,-6e-05,-0.00016,-1e-05,-1e-05,0.0,1,14.0
3327,0.0,-1e-05,-3e-05,-6e-05,-0.00016,-1e-05,-1e-05,0.0,1,14.0
3328,0.0,-1e-05,-3e-05,-6e-05,-0.00016,-1e-05,-1e-05,0.0,1,14.0
3329,-2e-05,-3e-05,1e-05,4e-05,-0.00032,0.0,-1e-05,0.0,1,14.0
3330,-1e-05,-2e-05,-7e-05,-0.00011,0.00012,-1e-05,-2e-05,0.0,1,14.0
3331,-2e-05,2e-05,0.0,-1e-05,9e-05,-2e-05,-1e-05,-1e-05,1,14.0
3332,-2e-05,2e-05,0.0,-1e-05,9e-05,-2e-05,-1e-05,-1e-05,1,14.0
3333,-2e-05,2e-05,0.0,-1e-05,9e-05,-2e-05,-1e-05,-1e-05,1,14.0
3334,-2e-05,2e-05,0.0,-1e-05,9e-05,-2e-05,-1e-05,-1e-05,1,14.0
3335,-2e-05,2e-05,0.0,-1e-05,9e-05,-2e-05,-1e-05,-1e-05,1,14.0
3336,-2e-05,2e-05,0.0,-1e-05,9e-05,-2e-05,-1e-05,-1e-05,1,14.0
3338,-2e-05,2e-05,0.0,-1e-05,9e-05,-2e-05,-1e-05,-1e-05,1,14.0
3339,-2e-05,2e-05,0.0,-1e-05,9e-05,-2e-05,-1e-05,-1e-05,1,14.0
3340,-2e-05,2e-05,0.0,-1e-05,9e-05,-2e-05,-1e-05,-1e-05,1,14.0
3341,-2e-05,2e-05,0.0,-1e-05,9e-05,-2e-05,-1e-05,-1e-05,1,14.0
3342,-2e-05,2e-05,0.0,-1e-05,9e-05,-2e-05,-1e-05,-1e-05,1,14.0
3343,-2e-05,2e-05,0.0,-1e-05,9e-05,-2e-05,-1e-05,-1e-05,1,14.0
3344,-2e-05,2e-05,0.0,-1e-05,9e-05,-2e-05,-1e-05,-1e-05,1,14.0
3345,-2e-05,2e-05,0.0,-1e-05,9e-05,-2e-05,-1e-05,-1e-05,1,14.0
3346,-2e-05,2e-05,0.0,-1e-05,9e-05,-2e-05,-1e-05,-1e-05,1,14.0
3347,-2e-05,2e-05,0.0,-1e-05,9e-05,-2e-05,-1e-05,-1e-05,1,14.0
3348,-2e-05,2e-05,0.0,-1e-05,9e-05,-2e-05,-1e-05,-1e-05,1,14.0
3349,-2e-05,2e-05,0.0,-1e-05,9e-05,-2e-05,-1e-05,-1e-05,1,14.0
3350,-2e-05,2e-05,0.0,-1e-05,9e-05,-2e-05,-1e-05,-1e-05,1,14.0
3351,-2e-05,2e-05,0.0,-1e-05,9e-05,-2e-05,-1e-05,-1e-05,1,14.0
3352,-3e-05,-2e-05,1e-05,3e-05,-0.0001,-3e-05,-3e-05,-3e-05,1,14.0
3353,-3e-05,-2e-05,1e-05,3e-05,-0.0001,-3e-05,-3e-05,-3e-05,1,14.0
3354,-3e-05,-2e-05,1e-05,3e-05,-0.0001,-3e-05,-3e-05,-3e-05,1,14.0
3355,-3e-05,-2e-05,1e-05,3e-05,-0.0001,-3e-05,-3e-05,-3e-05,1,14.0
3356,-3e-05,-2e-05,1e-05,3e-05,-0.0001,-3e-05,-3e-05,-3e-05,1,14.0
3357,-3e-05,-2e-05,1e-05,3e-05,-0.0001,-3e-05,-3e-05,-3e-05,1,14.0
3358,-1e-05,-2e-05,-2e-05,0.0,7e-05,1e-05,-1e-05,0.0,1,14.0
3359,-1e-05,-2e-05,-2e-05,0.0,7e-05,1e-05,-1e-05,0.0,1,14.0
3360,-1e-05,-2e-05,-2e-05,0.0,7e-05,1e-05,-1e-05,0.0,1,14.0
3361,-1e-05,-2e-05,-2e-05,0.0,7e-05,1e-05,-1e-05,0.0,1,14.0
3362,-1e-05,-2e-05,-2e-05,0.0,7e-05,1e-05,-1e-05,0.0,1,14.0
3363,-1e-05,-2e-05,-2e-05,0.0,7e-05,1e-05,-1e-05,0.0,1,14.0
3364,-1e-05,-2e-05,-2e-05,0.0,7e-05,1e-05,-1e-05,0.0,1,14.0
3365,-1e-05,-2e-05,-2e-05,0.0,7e-05,1e-05,-1e-05,0.0,1,14.0
3366,0.0,1e-05,4e-05,3e-05,0.00015,0.0,0.0,-1e-05,1,14.0
3367,0.0,1e-05,4e-05,3e-05,0.00015,0.0,0.0,-1e-05,1,14.0
3368,0.0,1e-05,4e-05,3e-05,0.00015,0.0,0.0,-1e-05,1,14.0
3369,0.0,1e-05,4e-05,3e-05,0.00015,0.0,0.0,-1e-05,1,14.0
3370,0.0,1e-05,4e-05,3e-05,0.00015,0.0,0.0,-1e-05,1,14.0
3371,0.0,1e-05,4e-05,3e-05,0.00015,0.0,0.0,-1e-05,1,14.0
3372,0.0,1e-05,4e-05,3e-05,0.00015,0.0,0.0,-1e-05,1,14.0
3373,-1e-05,0.0,0.0,-2e-05,-3e-05,-1e-05,-2e-05,0.0,1,14.0
3374,-1e-05,0.0,0.0,-2e-05,-3e-05,-1e-05,-2e-05,0.0,1,14.0
3375,-1e-05,0.0,0.0,-2e-05,-3e-05,-1e-05,-2e-05,0.0,1,14.0
3376,-1e-05,0.0,0.0,-2e-05,-3e-05,-1e-05,-2e-05,0.0,1,14.0
3377,-1e-05,0.0,0.0,-2e-05,-3e-05,-1e-05,-2e-05,0.0,1,14.0
3378,-1e-05,0.0,0.0,-2e-05,-3e-05,-1e-05,-2e-05,0.0,1,14.0
3379,-1e-05,0.0,0.0,-2e-05,-3e-05,-1e-05,-2e-05,0.0,1,14.0
3380,-1e-05,0.0,0.0,-2e-05,-3e-05,-1e-05,-2e-05,0.0,1,14.0
3381,-1e-05,0.0,0.0,-2e-05,-3e-05,-1e-05,-2e-05,0.0,1,14.0
3382,-1e-05,0.0,0.0,-2e-05,-3e-05,-1e-05,-2e-05,0.0,1,14.0
3383,-1e-05,0.0,0.0,-2e-05,-3e-05,-1e-05,-2e-05,0.0,1,14.0
3384,-1e-05,0.0,0.0,-2e-05,-3e-05,-1e-05,-2e-05,0.0,1,14.0
3385,-1e-05,0.0,0.0,-2e-05,-3e-05,-1e-05,-2e-05,0.0,1,14.0
3386,-1e-05,0.0,0.0,-2e-05,-3e-05,-1e-05,-2e-05,0.0,1,14.0
3388,-1e-05,0.0,0.0,-2e-05,-3e-05,-1e-05,-2e-05,0.0,1,14.0
3389,-1e-05,0.0,0.0,-2e-05,-3e-05,-1e-05,-2e-05,0.0,1,14.0
3390,-1e-05,-1e-05,0.0,0.0,8e-05,0.0,0.0,0.0,1,14.0
3391,-1e-05,0.0,0.0,-0.00012,-6e-05,-4e-05,-2e-05,-1e-05,1,14.0
3392,-1e-05,0.0,0.0,-0.00012,-6e-05,-4e-05,-2e-05,-1e-05,1,14.0
3393,-1e-05,0.0,0.0,-0.00012,-6e-05,-4e-05,-2e-05,-1e-05,1,14.0
3394,-1e-05,0.0,0.0,-0.00012,-6e-05,-4e-05,-2e-05,-1e-05,1,14.0
3395,-1e-05,0.0,0.0,-0.00012,-6e-05,-4e-05,-2e-05,-1e-05,1,14.0
3396,-1e-05,0.0,0.0,-0.00012,-6e-05,-4e-05,-2e-05,-1e-05,1,14.0
3397,-1e-05,0.0,0.0,-0.00012,-6e-05,-4e-05,-2e-05,-1e-05,1,14.0
3399,-1e-05,0.0,0.0,-0.00012,-6e-05,-4e-05,-2e-05,-1e-05,1,14.0
3400,-1e-05,0.0,0.0,-0.00012,-6e-05,-4e-05,-2e-05,-1e-05,1,14.0
3401,-1e-05,0.0,0.0,-0.00012,-6e-05,-4e-05,-2e-05,-1e-05,1,14.0
3402,-1e-05,0.0,0.0,-0.00012,-6e-05,-4e-05,-2e-05,-1e-05,1,14.0
3403,-1e-05,0.0,0.0,-0.00012,-6e-05,-4e-05,-2e-05,-1e-05,1,14.0
3404,-1e-05,0.0,0.0,-0.00012,-6e-05,-4e-05,-2e-05,-1e-05,1,14.0
3405,-1e-05,0.0,0.0,-0.00012,-6e-05,-4e-05,-2e-05,-1e-05,1,14.0
3406,-1e-05,0.0,0.0,-0.00012,-6e-05,-4e-05,-2e-05,-1e-05,1,14.0
3407,-1e-05,0.0,0.0,-0.00012,-6e-05,-4e-05,-2e-05,-1e-05,1,14.0
3408,-1e-05,0.0,0.0,-0.00012,-6e-05,-4e-05,-2e-05,-1e-05,1,14.0
3409,-1e-05,0.0,0.0,-0.00012,-6e-05,-4e-05,-2e-05,-1e-05,1,14.0
3410,-1e-05,0.0,0.0,-0.00012,-6e-05,-4e-05,-2e-05,-1e-05,1,14.0
3411,-1e-05,0.0,0.0,-0.00012,-6e-05,-4e-05,-2e-05,-1e-05,1,14.0
3412,-1e-05,0.0,0.0,-0.00012,-6e-05,-4e-05,-2e-05,-1e-05,1,14.0
3413,0.0,-3e-05,-8e-05,-9e-05,-6e-05,0.0,0.0,-1e-05,1,14.0
3414,-1e-05,-1e-05,1e-05,4e-05,0.00013,1e-05,1e-05,-2e-05,1,14.0
3415,-1e-05,-1e-05,1e-05,4e-05,0.00013,1e-05,1e-05,-2e-05,1,14.0
3416,-1e-05,-1e-05,1e-05,4e-05,0.00013,1e-05,1e-05,-2e-05,1,14.0
3417,-1e-05,-1e-05,1e-05,4e-05,0.00013,1e-05,1e-05,-2e-05,1,14.0
3418,-1e-05,-1e-05,1e-05,4e-05,0.00013,1e-05,1e-05,-2e-05,1,14.0
3419,-1e-05,-1e-05,1e-05,4e-05,0.00013,1e-05,1e-05,-2e-05,1,14.0
3420,-1e-05,-1e-05,1e-05,4e-05,0.00013,1e-05,1e-05,-2e-05,1,14.0
3421,-1e-05,-1e-05,1e-05,4e-05,0.00013,1e-05,1e-05,-2e-05,1,14.0
3422,-1e-05,-1e-05,1e-05,4e-05,0.00013,1e-05,1e-05,-2e-05,1,14.0
3423,-1e-05,-1e-05,1e-05,4e-05,0.00013,1e-05,1e-05,-2e-05,1,14.0
3424,-1e-05,-1e-05,1e-05,4e-05,0.00013,1e-05,1e-05,-2e-05,1,14.0
3425,-1e-05,-1e-05,1e-05,4e-05,0.00013,1e-05,1e-05,-2e-05,1,14.0
3426,0.0,-1e-05,-2e-05,-2e-05,-0.0002,-2e-05,0.0,-1e-05,1,14.0
3427,0.0,-1e-05,-2e-05,-2e-05,-0.0002,-2e-05,0.0,-1e-05,1,14.0
3428,0.0,-1e-05,-2e-05,-2e-05,-0.0002,-2e-05,0.0,-1e-05,1,14.0
3429,0.0,-1e-05,-2e-05,-2e-05,-0.0002,-2e-05,0.0,-1e-05,1,14.0
3430,0.0,-1e-05,-2e-05,-2e-05,-0.0002,-2e-05,0.0,-1e-05,1,14.0
3431,0.0,-1e-05,-2e-05,-2e-05,-0.0002,-2e-05,0.0,-1e-05,1,14.0
3432,0.0,-1e-05,-2e-05,-2e-05,-0.0002,-2e-05,0.0,-1e-05,1,14.0
3433,1e-05,-1e-05,0.0,-1e-05,-5e-05,-2e-05,-2e-05,0.0,1,14.0
3434,1e-05,-1e-05,0.0,-1e-05,-5e-05,-2e-05,-2e-05,0.0,1,14.0
3435,1e-05,-1e-05,0.0,-1e-05,-5e-05,-2e-05,-2e-05,0.0,1,14.0
3436,1e-05,-1e-05,0.0,-1e-05,-5e-05,-2e-05,-2e-05,0.0,1,14.0
3438,1e-05,-1e-05,0.0,-1e-05,-5e-05,-2e-05,-2e-05,0.0,1,14.0
3439,1e-05,-1e-05,0.0,-1e-05,-5e-05,-2e-05,-2e-05,0.0,1,14.0
3440,1e-05,-1e-05,0.0,-1e-05,-5e-05,-2e-05,-2e-05,0.0,1,14.0
3441,1e-05,-1e-05,0.0,-1e-05,-5e-05,-2e-05,-2e-05,0.0,1,14.0
3442,1e-05,-1e-05,0.0,-1e-05,-5e-05,-2e-05,-2e-05,0.0,1,14.0
3443,1e-05,-1e-05,0.0,-1e-05,-5e-05,-2e-05,-2e-05,0.0,1,14.0
3444,1e-05,-1e-05,0.0,-1e-05,-5e-05,-2e-05,-2e-05,0.0,1,14.0
3445,1e-05,-1e-05,0.0,-1e-05,-5e-05,-2e-05,-2e-05,0.0,1,14.0
3446,1e-05,-1e-05,0.0,-1e-05,-5e-05,-2e-05,-2e-05,0.0,1,14.0
3447,1e-05,-1e-05,0.0,-1e-05,-5e-05,-2e-05,-2e-05,0.0,1,14.0
3448,1e-05,-1e-05,0.0,-1e-05,-5e-05,-2e-05,-2e-05,0.0,1,14.0
3449,1e-05,-1e-05,0.0,-1e-05,-5e-05,-2e-05,-2e-05,0.0,1,14.0
3450,-1e-05,-1e-05,-1e-05,4e-05,-0.00015,2e-05,1e-05,0.0,1,14.0
3451,-1e-05,-1e-05,-1e-05,4e-05,-0.00015,2e-05,1e-05,0.0,1,14.0
3452,-1e-05,-1e-05,-1e-05,4e-05,-0.00015,2e-05,1e-05,0.0,1,14.0
3453,-1e-05,-1e-05,-1e-05,4e-05,-0.00015,2e-05,1e-05,0.0,1,14.0
3454,-1e-05,-1e-05,-1e-05,4e-05,-0.00015,2e-05,1e-05,0.0,1,14.0
3455,-1e-05,-1e-05,-1e-05,4e-05,-0.00015,2e-05,1e-05,0.0,1,14.0
3456,-1e-05,1e-05,-1e-05,6e-05,0.00012,1e-05,-1e-05,0.0,1,14.0
3457,-1e-05,1e-05,-1e-05,6e-05,0.00012,1e-05,-1e-05,0.0,1,14.0
3458,-1e-05,1e-05,-1e-05,6e-05,0.00012,1e-05,-1e-05,0.0,1,14.0
3459,-1e-05,1e-05,-1e-05,6e-05,0.00012,1e-05,-1e-05,0.0,1,14.0
3460,-1e-05,1e-05,-1e-05,6e-05,0.00012,1e-05,-1e-05,0.0,1,14.0
3461,-1e-05,1e-05,-1e-05,6e-05,0.00012,1e-05,-1e-05,0.0,1,14.0
3462,-1e-05,1e-05,-1e-05,6e-05,0.00012,1e-05,-1e-05,0.0,1,14.0
3463,-1e-05,1e-05,-1e-05,6e-05,0.00012,1e-05,-1e-05,0.0,1,14.0
3464,-1e-05,1e-05,-1e-05,6e-05,0.00012,1e-05,-1e-05,0.0,1,14.0
3465,-1e-05,1e-05,-1e-05,6e-05,0.00012,1e-05,-1e-05,0.0,1,14.0
3466,-1e-05,1e-05,-1e-05,6e-05,0.00012,1e-05,-1e-05,0.0,1,14.0
3467,-1e-05,1e-05,-1e-05,6e-05,0.00012,1e-05,-1e-05,0.0,1,14.0
3468,-1e-05,1e-05,-1e-05,6e-05,0.00012,1e-05,-1e-05,0.0,1,14.0
3469,-1e-05,1e-05,-1e-05,6e-05,0.00012,1e-05,-1e-05,0.0,1,14.0
3470,-1e-05,1e-05,-1e-05,6e-05,0.00012,1e-05,-1e-05,0.0,1,14.0
3471,-1e-05,1e-05,-1e-05,6e-05,0.00012,1e-05,-1e-05,0.0,1,14.0
3472,-3e-05,1e-05,4e-05,6e-05,-1e-05,-2e-05,-2e-05,-2e-05,1,14.0
3473,-3e-05,1e-05,4e-05,6e-05,-1e-05,-2e-05,-2e-05,-2e-05,1,14.0
3474,-3e-05,-2e-05,-3e-05,-0.00011,5e-05,-3e-05,-2e-05,-1e-05,1,14.0
3475,-3e-05,-2e-05,-3e-05,-0.00011,5e-05,-3e-05,-2e-05,-1e-05,1,14.0
3476,-3e-05,-2e-05,-3e-05,-0.00011,5e-05,-3e-05,-2e-05,-1e-05,1,14.0
3477,-3e-05,-2e-05,-3e-05,-0.00011,5e-05,-3e-05,-2e-05,-1e-05,1,14.0
3478,-3e-05,-2e-05,-3e-05,-0.00011,5e-05,-3e-05,-2e-05,-1e-05,1,14.0
3479,-3e-05,-2e-05,-3e-05,-0.00011,5e-05,-3e-05,-2e-05,-1e-05,1,14.0
3480,-3e-05,-2e-05,-3e-05,-0.00011,5e-05,-3e-05,-2e-05,-1e-05,1,14.0
3481,-3e-05,-2e-05,-3e-05,-0.00011,5e-05,-3e-05,-2e-05,-1e-05,1,14.0
3482,-3e-05,-2e-05,-3e-05,-0.00011,5e-05,-3e-05,-2e-05,-1e-05,1,14.0
3483,-3e-05,-2e-05,-3e-05,-0.00011,5e-05,-3e-05,-2e-05,-1e-05,1,14.0
3484,-3e-05,-2e-05,-3e-05,-0.00011,5e-05,-3e-05,-2e-05,-1e-05,1,14.0
3485,-3e-05,-2e-05,-3e-05,-0.00011,5e-05,-3e-05,-2e-05,-1e-05,1,14.0
3486,-2e-05,-4e-05,-3e-05,-0.0001,-0.00027,-3e-05,-1e-05,-1e-05,1,14.0
3488,-2e-05,-4e-05,-3e-05,-0.0001,-0.00027,-3e-05,-1e-05,-1e-05,1,14.0
3489,-2e-05,-4e-05,-3e-05,-0.0001,-0.00027,-3e-05,-1e-05,-1e-05,1,14.0
3490,-2e-05,-4e-05,-3e-05,-0.0001,-0.00027,-3e-05,-1e-05,-1e-05,1,14.0
3491,-2e-05,-4e-05,-3e-05,-0.0001,-0.00027,-3e-05,-1e-05,-1e-05,1,14.0
3492,-2e-05,-4e-05,-3e-05,-0.0001,-0.00027,-3e-05,-1e-05,-1e-05,1,14.0
3493,-2e-05,-4e-05,-3e-05,-0.0001,-0.00027,-3e-05,-1e-05,-1e-05,1,14.0
3494,-2e-05,-4e-05,-3e-05,-0.0001,-0.00027,-3e-05,-1e-05,-1e-05,1,14.0
3495,0.0,-1e-05,1e-05,5e-05,-4e-05,1e-05,0.0,-1e-05,1,14.0
3496,0.0,-1e-05,1e-05,5e-05,-4e-05,1e-05,0.0,-1e-05,1,14.0
3497,0.0,-1e-05,1e-05,5e-05,-4e-05,1e-05,0.0,-1e-05,1,14.0
3498,0.0,-1e-05,1e-05,5e-05,-4e-05,1e-05,0.0,-1e-05,1,14.0
3499,0.0,-1e-05,1e-05,5e-05,-4e-05,1e-05,0.0,-1e-05,1,14.0
3500,0.0,-1e-05,1e-05,5e-05,-4e-05,1e-05,0.0,-1e-05,1,14.0
3501,0.0,-1e-05,1e-05,5e-05,-4e-05,1e-05,0.0,-1e-05,1,14.0
3502,0.0,-1e-05,1e-05,5e-05,-4e-05,1e-05,0.0,-1e-05,1,14.0
3503,0.0,-1e-05,1e-05,5e-05,-4e-05,1e-05,0.0,-1e-05,1,14.0
3504,0.0,-1e-05,1e-05,5e-05,-4e-05,1e-05,0.0,-1e-05,1,14.0
3505,0.0,-1e-05,1e-05,5e-05,-4e-05,1e-05,0.0,-1e-05,1,14.0
3506,0.0,-1e-05,1e-05,5e-05,-4e-05,1e-05,0.0,-1e-05,1,14.0
3507,0.0,-1e-05,1e-05,5e-05,-4e-05,1e-05,0.0,-1e-05,1,14.0
3508,0.0,-1e-05,1e-05,5e-05,-4e-05,1e-05,0.0,-1e-05,1,14.0
3509,0.0,0.0,1e-05,-1e-05,0.00023,-2e-05,-1e-05,-2e-05,1,14.0
3510,-1e-05,0.0,-1e-05,4e-05,8e-05,-1e-05,0.0,0.0,1,14.0
3511,-1e-05,0.0,1e-05,1e-05,-3e-05,-1e-05,0.0,-2e-05,1,14.0
3512,-1e-05,0.0,1e-05,1e-05,-3e-05,-1e-05,0.0,-2e-05,1,14.0
3513,-1e-05,0.0,1e-05,1e-05,-3e-05,-1e-05,0.0,-2e-05,1,14.0
3514,-1e-05,0.0,1e-05,1e-05,-3e-05,-1e-05,0.0,-2e-05,1,14.0
3515,-1e-05,0.0,1e-05,1e-05,-3e-05,-1e-05,0.0,-2e-05,1,14.0
3516,-1e-05,0.0,1e-05,1e-05,-3e-05,-1e-05,0.0,-2e-05,1,14.0
3517,-1e-05,0.0,1e-05,1e-05,-3e-05,-1e-05,0.0,-2e-05,1,14.0
3518,-1e-05,0.0,1e-05,1e-05,-3e-05,-1e-05,0.0,-2e-05,1,14.0
3519,-1e-05,0.0,1e-05,1e-05,-3e-05,-1e-05,0.0,-2e-05,1,14.0
3520,-1e-05,0.0,1e-05,1e-05,-3e-05,-1e-05,0.0,-2e-05,1,14.0
3521,-1e-05,0.0,1e-05,1e-05,-3e-05,-1e-05,0.0,-2e-05,1,14.0
3522,-1e-05,0.0,1e-05,1e-05,-3e-05,-1e-05,0.0,-2e-05,1,14.0
3523,-1e-05,0.0,1e-05,1e-05,-3e-05,-1e-05,0.0,-2e-05,1,14.0
3524,-1e-05,0.0,1e-05,1e-05,-3e-05,-1e-05,0.0,-2e-05,1,14.0
3525,-1e-05,0.0,1e-05,1e-05,-3e-05,-1e-05,0.0,-2e-05,1,14.0
3526,-1e-05,0.0,1e-05,1e-05,-3e-05,-1e-05,0.0,-2e-05,1,14.0
3527,-1e-05,0.0,1e-05,1e-05,-3e-05,-1e-05,0.0,-2e-05,1,14.0
3528,-1e-05,0.0,1e-05,1e-05,-3e-05,-1e-05,0.0,-2e-05,1,14.0
3529,-1e-05,0.0,1e-05,1e-05,-3e-05,-1e-05,0.0,-2e-05,1,14.0
3530,-1e-05,0.0,1e-05,1e-05,-3e-05,-1e-05,0.0,-2e-05,1,14.0
3531,-1e-05,0.0,1e-05,1e-05,-3e-05,-1e-05,0.0,-2e-05,1,14.0
3532,-2e-05,-4e-05,-1e-05,1e-05,3e-05,-1e-05,1e-05,-4e-05,1,14.0
3533,-2e-05,-4e-05,-1e-05,1e-05,3e-05,-1e-05,1e-05,-4e-05,1,14.0
3534,-1e-05,1e-05,-1e-05,-1e-05,-2e-05,-1e-05,0.0,1e-05,1,14.0
3535,-1e-05,1e-05,-1e-05,-1e-05,-2e-05,-1e-05,0.0,1e-05,1,14.0
3536,-1e-05,1e-05,-1e-05,-1e-05,-2e-05,-1e-05,0.0,1e-05,1,14.0
3538,-1e-05,1e-05,-1e-05,-1e-05,-2e-05,-1e-05,0.0,1e-05,1,14.0
3539,-1e-05,1e-05,-1e-05,-1e-05,-2e-05,-1e-05,0.0,1e-05,1,14.0
3540,-1e-05,1e-05,-1e-05,-1e-05,-2e-05,-1e-05,0.0,1e-05,1,14.0
3541,-1e-05,1e-05,-1e-05,-1e-05,-2e-05,-1e-05,0.0,1e-05,1,14.0
3542,-1e-05,1e-05,-1e-05,-1e-05,-2e-05,-1e-05,0.0,1e-05,1,14.0
3543,-1e-05,1e-05,-1e-05,-1e-05,-2e-05,-1e-05,0.0,1e-05,1,14.0
3544,-1e-05,1e-05,-1e-05,-1e-05,-2e-05,-1e-05,0.0,1e-05,1,14.0
3545,-1e-05,1e-05,-1e-05,-1e-05,-2e-05,-1e-05,0.0,1e-05,1,14.0
3546,-1e-05,-1e-05,-4e-05,-7e-05,0.00014,0.0,-1e-05,0.0,1,14.0
3547,-1e-05,-1e-05,-4e-05,-7e-05,0.00014,0.0,-1e-05,0.0,1,14.0
3548,-1e-05,-1e-05,-4e-05,-7e-05,0.00014,0.0,-1e-05,0.0,1,14.0
3549,-1e-05,-1e-05,-4e-05,-7e-05,0.00014,0.0,-1e-05,0.0,1,14.0
3550,-1e-05,-1e-05,-4e-05,-7e-05,0.00014,0.0,-1e-05,0.0,1,14.0
3551,-1e-05,-1e-05,-4e-05,-7e-05,0.00014,0.0,-1e-05,0.0,1,14.0
3552,-1e-05,-1e-05,-4e-05,-7e-05,0.00014,0.0,-1e-05,0.0,1,14.0
3553,-1e-05,-1e-05,-4e-05,-7e-05,0.00014,0.0,-1e-05,0.0,1,14.0
3554,-1e-05,-1e-05,-4e-05,-7e-05,0.00014,0.0,-1e-05,0.0,1,14.0
3555,-1e-05,-1e-05,1e-05,3e-05,-0.00013,-1e-05,0.0,-2e-05,1,14.0
3556,-1e-05,-1e-05,1e-05,3e-05,-0.00013,-1e-05,0.0,-2e-05,1,14.0
3557,-1e-05,-1e-05,1e-05,3e-05,-0.00013,-1e-05,0.0,-2e-05,1,14.0
3558,-1e-05,-1e-05,1e-05,3e-05,-0.00013,-1e-05,0.0,-2e-05,1,14.0
3559,-1e-05,-1e-05,1e-05,3e-05,-0.00013,-1e-05,0.0,-2e-05,1,14.0
3560,-1e-05,-1e-05,1e-05,3e-05,-0.00013,-1e-05,0.0,-2e-05,1,14.0
3561,-1e-05,-1e-05,1e-05,3e-05,-0.00013,-1e-05,0.0,-2e-05,1,14.0
3562,-1e-05,-1e-05,1e-05,3e-05,-0.00013,-1e-05,0.0,-2e-05,1,14.0
3563,-1e-05,-1e-05,1e-05,3e-05,-0.00013,-1e-05,0.0,-2e-05,1,14.0
3564,-1e-05,-1e-05,1e-05,3e-05,-0.00013,-1e-05,0.0,-2e-05,1,14.0
3565,-1e-05,-1e-05,1e-05,3e-05,-0.00013,-1e-05,0.0,-2e-05,1,14.0
3566,-1e-05,-1e-05,1e-05,3e-05,-0.00013,-1e-05,0.0,-2e-05,1,14.0
3567,-1e-05,-1e-05,1e-05,3e-05,-0.00013,-1e-05,0.0,-2e-05,1,14.0
3568,-1e-05,-1e-05,1e-05,3e-05,-0.00013,-1e-05,0.0,-2e-05,1,14.0
3569,-1e-05,0.0,0.0,-1e-05,0.00017,2e-05,-2e-05,1e-05,1,14.0
3570,-1e-05,-1e-05,-1e-05,4e-05,0.00013,1e-05,0.0,-1e-05,1,14.0
3571,1e-05,-2e-05,-5e-05,-3e-05,-0.00016,-4e-05,-1e-05,-2e-05,1,14.0
3572,1e-05,-2e-05,-5e-05,-3e-05,-0.00016,-4e-05,-1e-05,-2e-05,1,14.0
3573,1e-05,-2e-05,-5e-05,-3e-05,-0.00016,-4e-05,-1e-05,-2e-05,1,14.0
3574,1e-05,-2e-05,-5e-05,-3e-05,-0.00016,-4e-05,-1e-05,-2e-05,1,14.0
3575,1e-05,-2e-05,-5e-05,-3e-05,-0.00016,-4e-05,-1e-05,-2e-05,1,14.0
3576,1e-05,-2e-05,-5e-05,-3e-05,-0.00016,-4e-05,-1e-05,-2e-05,1,14.0
3577,1e-05,-2e-05,-5e-05,-3e-05,-0.00016,-4e-05,-1e-05,-2e-05,1,14.0
3578,1e-05,-2e-05,-5e-05,-3e-05,-0.00016,-4e-05,-1e-05,-2e-05,1,14.0
3579,1e-05,-2e-05,-5e-05,-3e-05,-0.00016,-4e-05,-1e-05,-2e-05,1,14.0
3580,1e-05,-2e-05,-5e-05,-3e-05,-0.00016,-4e-05,-1e-05,-2e-05,1,14.0
3581,1e-05,-2e-05,-5e-05,-3e-05,-0.00016,-4e-05,-1e-05,-2e-05,1,14.0
3582,1e-05,-2e-05,-5e-05,-3e-05,-0.00016,-4e-05,-1e-05,-2e-05,1,14.0
3583,1e-05,-2e-05,-5e-05,-3e-05,-0.00016,-4e-05,-1e-05,-2e-05,1,14.0
3584,1e-05,-2e-05,-5e-05,-3e-05,-0.00016,-4e-05,-1e-05,-2e-05,1,14.0
3585,1e-05,-2e-05,-5e-05,-3e-05,-0.00016,-4e-05,-1e-05,-2e-05,1,14.0
3586,1e-05,-2e-05,-5e-05,-3e-05,-0.00016,-4e-05,-1e-05,-2e-05,1,14.0
3588,1e-05,-2e-05,-5e-05,-3e-05,-0.00016,-4e-05,-1e-05,-2e-05,1,14.0
3589,1e-05,-2e-05,-5e-05,-3e-05,-0.00016,-4e-05,-1e-05,-2e-05,1,14.0
3590,1e-05,-2e-05,-5e-05,-3e-05,-0.00016,-4e-05,-1e-05,-2e-05,1,14.0
3591,1e-05,-2e-05,-5e-05,-3e-05,-0.00016,-4e-05,-1e-05,-2e-05,1,14.0
3592,1e-05,-2e-05,-5e-05,-3e-05,-0.00016,-4e-05,-1e-05,-2e-05,1,14.0
3593,0.0,-2e-05,-3e-05,-3e-05,6e-05,-1e-05,-2e-05,-2e-05,1,14.0
3594,0.0,-1e-05,1e-05,5e-05,-7e-05,-1e-05,-2e-05,-2e-05,1,14.0
3595,0.0,-1e-05,1e-05,5e-05,-7e-05,-1e-05,-2e-05,-2e-05,1,14.0
3596,0.0,-1e-05,1e-05,5e-05,-7e-05,-1e-05,-2e-05,-2e-05,1,14.0
3597,0.0,-1e-05,1e-05,5e-05,-7e-05,-1e-05,-2e-05,-2e-05,1,14.0
3598,0.0,-1e-05,1e-05,5e-05,-7e-05,-1e-05,-2e-05,-2e-05,1,14.0
3599,0.0,-1e-05,1e-05,5e-05,-7e-05,-1e-05,-2e-05,-2e-05,1,14.0
3600,0.0,-1e-05,1e-05,5e-05,-7e-05,-1e-05,-2e-05,-2e-05,1,14.0
3601,0.0,-1e-05,1e-05,5e-05,-7e-05,-1e-05,-2e-05,-2e-05,1,14.0
3602,0.0,-1e-05,1e-05,5e-05,-7e-05,-1e-05,-2e-05,-2e-05,1,14.0
3603,0.0,-1e-05,1e-05,5e-05,-7e-05,-1e-05,-2e-05,-2e-05,1,14.0
3604,0.0,-1e-05,1e-05,5e-05,-7e-05,-1e-05,-2e-05,-2e-05,1,14.0
3605,0.0,-1e-05,1e-05,5e-05,-7e-05,-1e-05,-2e-05,-2e-05,1,14.0
3606,2e-05,2e-05,2e-05,5e-05,-0.00011,2e-05,-1e-05,2e-05,1,14.0
3607,2e-05,2e-05,2e-05,5e-05,-0.00011,2e-05,-1e-05,2e-05,1,14.0
3608,2e-05,2e-05,2e-05,5e-05,-0.00011,2e-05,-1e-05,2e-05,1,14.0
3609,2e-05,2e-05,2e-05,5e-05,-0.00011,2e-05,-1e-05,2e-05,1,14.0
3610,2e-05,2e-05,2e-05,5e-05,-0.00011,2e-05,-1e-05,2e-05,1,14.0
3611,2e-05,2e-05,2e-05,5e-05,-0.00011,2e-05,-1e-05,2e-05,1,14.0
3612,2e-05,2e-05,2e-05,5e-05,-0.00011,2e-05,-1e-05,2e-05,1,14.0
3613,2e-05,2e-05,2e-05,5e-05,-0.00011,2e-05,-1e-05,2e-05,1,14.0
3614,2e-05,2e-05,2e-05,5e-05,-0.00011,2e-05,-1e-05,2e-05,1,14.0
3615,-3e-05,-1e-05,-6e-05,0.0,-1e-05,-3e-05,-2e-05,-1e-05,1,14.0
3616,-3e-05,-1e-05,-6e-05,0.0,-1e-05,-3e-05,-2e-05,-1e-05,1,14.0
3617,-3e-05,-1e-05,-6e-05,0.0,-1e-05,-3e-05,-2e-05,-1e-05,1,14.0
3618,-3e-05,-1e-05,-6e-05,0.0,-1e-05,-3e-05,-2e-05,-1e-05,1,14.0
3619,-3e-05,-1e-05,-6e-05,0.0,-1e-05,-3e-05,-2e-05,-1e-05,1,14.0
3620,-3e-05,-1e-05,-6e-05,0.0,-1e-05,-3e-05,-2e-05,-1e-05,1,14.0
3621,-3e-05,-1e-05,-6e-05,0.0,-1e-05,-3e-05,-2e-05,-1e-05,1,14.0
3622,-3e-05,-1e-05,-6e-05,0.0,-1e-05,-3e-05,-2e-05,-1e-05,1,14.0
3623,-3e-05,-1e-05,-6e-05,0.0,-1e-05,-3e-05,-2e-05,-1e-05,1,14.0
3624,-3e-05,-1e-05,-6e-05,0.0,-1e-05,-3e-05,-2e-05,-1e-05,1,14.0
3625,-3e-05,-1e-05,-6e-05,0.0,-1e-05,-3e-05,-2e-05,-1e-05,1,14.0
3626,-3e-05,-1e-05,-6e-05,0.0,-1e-05,-3e-05,-2e-05,-1e-05,1,14.0
3627,-3e-05,-1e-05,-6e-05,0.0,-1e-05,-3e-05,-2e-05,-1e-05,1,14.0
3628,-3e-05,-1e-05,-6e-05,0.0,-1e-05,-3e-05,-2e-05,-1e-05,1,14.0
3629,-3e-05,-1e-05,-6e-05,0.0,-1e-05,-3e-05,-2e-05,-1e-05,1,14.0
3630,-1e-05,0.0,3e-05,-2e-05,7e-05,-4e-05,-2e-05,-2e-05,1,14.0
3631,-1e-05,0.0,3e-05,-2e-05,7e-05,-4e-05,-2e-05,-2e-05,1,14.0
3632,0.0,0.0,-1e-05,0.0,-7e-05,-2e-05,0.0,1e-05,1,14.0
3633,0.0,0.0,-1e-05,0.0,-7e-05,-2e-05,0.0,1e-05,1,14.0
3634,0.0,0.0,-1e-05,0.0,-7e-05,-2e-05,0.0,1e-05,1,14.0
3635,0.0,0.0,-1e-05,0.0,-7e-05,-2e-05,0.0,1e-05,1,14.0
3636,0.0,0.0,-1e-05,0.0,-7e-05,-2e-05,0.0,1e-05,1,14.0
3638,0.0,0.0,-1e-05,0.0,-7e-05,-2e-05,0.0,1e-05,1,14.0
3639,0.0,0.0,-1e-05,0.0,-7e-05,-2e-05,0.0,1e-05,1,14.0
3640,0.0,0.0,-1e-05,0.0,-7e-05,-2e-05,0.0,1e-05,1,14.0
3641,0.0,0.0,-1e-05,0.0,-7e-05,-2e-05,0.0,1e-05,1,14.0
3642,0.0,0.0,-1e-05,0.0,-7e-05,-2e-05,0.0,1e-05,1,14.0
3643,0.0,0.0,-1e-05,0.0,-7e-05,-2e-05,0.0,1e-05,1,14.0
3644,0.0,0.0,-1e-05,0.0,-7e-05,-2e-05,0.0,1e-05,1,14.0
3645,0.0,0.0,-1e-05,0.0,-7e-05,-2e-05,0.0,1e-05,1,14.0
3646,0.0,0.0,-1e-05,0.0,-7e-05,-2e-05,0.0,1e-05,1,14.0
3647,0.0,0.0,-1e-05,0.0,-7e-05,-2e-05,0.0,1e-05,1,14.0
3648,0.0,0.0,-1e-05,0.0,-7e-05,-2e-05,0.0,1e-05,1,14.0
3649,0.0,0.0,-1e-05,0.0,-7e-05,-2e-05,0.0,1e-05,1,14.0
3650,0.0,0.0,-1e-05,0.0,-7e-05,-2e-05,0.0,1e-05,1,14.0
3651,0.0,0.0,-1e-05,0.0,-7e-05,-2e-05,0.0,1e-05,1,14.0
3652,0.0,0.0,-1e-05,0.0,-7e-05,-2e-05,0.0,1e-05,1,14.0
3653,0.0,0.0,-1e-05,0.0,-7e-05,-2e-05,0.0,1e-05,1,14.0
3654,0.0,0.0,-1e-05,0.0,-7e-05,-2e-05,0.0,1e-05,1,14.0
3655,0.0,0.0,-1e-05,0.0,-7e-05,-2e-05,0.0,1e-05,1,14.0
3656,0.0,0.0,-1e-05,0.0,-7e-05,-2e-05,0.0,1e-05,1,14.0
3657,0.0,0.0,-1e-05,0.0,-7e-05,-2e-05,0.0,1e-05,1,14.0
3658,0.0,0.0,-1e-05,0.0,-7e-05,-2e-05,0.0,1e-05,1,14.0
3659,0.0,0.0,-1e-05,0.0,-7e-05,-2e-05,0.0,1e-05,1,14.0
3660,-1e-05,-2e-05,-4e-05,2e-05,0.00017,1e-05,-2e-05,-1e-05,1,14.0
3661,-1e-05,-1e-05,1e-05,-1e-05,0.00023,3e-05,1e-05,-1e-05,1,14.0
3662,-1e-05,-1e-05,1e-05,-1e-05,0.00023,3e-05,1e-05,-1e-05,1,14.0
3663,-1e-05,-1e-05,1e-05,-1e-05,0.00023,3e-05,1e-05,-1e-05,1,14.0
3664,-1e-05,-1e-05,1e-05,-1e-05,0.00023,3e-05,1e-05,-1e-05,1,14.0
3665,-1e-05,-1e-05,1e-05,-1e-05,0.00023,3e-05,1e-05,-1e-05,1,14.0
3666,-2e-05,-2e-05,-4e-05,-6e-05,-0.00043,-2e-05,-2e-05,0.0,1,14.0
3667,-2e-05,-2e-05,-4e-05,-6e-05,-0.00043,-2e-05,-2e-05,0.0,1,14.0
3668,-2e-05,-2e-05,-4e-05,-6e-05,-0.00043,-2e-05,-2e-05,0.0,1,14.0
3669,-2e-05,-2e-05,-4e-05,-6e-05,-0.00043,-2e-05,-2e-05,0.0,1,14.0
3670,-2e-05,-2e-05,-4e-05,-6e-05,-0.00043,-2e-05,-2e-05,0.0,1,14.0
3671,-2e-05,-2e-05,-4e-05,-6e-05,-0.00043,-2e-05,-2e-05,0.0,1,14.0
3672,-2e-05,-2e-05,-4e-05,-6e-05,-0.00043,-2e-05,-2e-05,0.0,1,14.0
3673,-2e-05,-2e-05,-4e-05,-6e-05,-0.00043,-2e-05,-2e-05,0.0,1,14.0
3674,-2e-05,-2e-05,-4e-05,-6e-05,-0.00043,-2e-05,-2e-05,0.0,1,14.0
3675,-2e-05,-2e-05,-4e-05,-6e-05,-0.00043,-2e-05,-2e-05,0.0,1,14.0
3676,-2e-05,-2e-05,-4e-05,-6e-05,-0.00043,-2e-05,-2e-05,0.0,1,14.0
3677,-2e-05,-2e-05,-4e-05,-6e-05,-0.00043,-2e-05,-2e-05,0.0,1,14.0
3678,-2e-05,-2e-05,-4e-05,-6e-05,-0.00043,-2e-05,-2e-05,0.0,1,14.0
3679,-2e-05,-2e-05,-4e-05,-6e-05,-0.00043,-2e-05,-2e-05,0.0,1,14.0
3680,-2e-05,-2e-05,-4e-05,-6e-05,-0.00043,-2e-05,-2e-05,0.0,1,14.0
3681,-2e-05,-2e-05,-4e-05,-6e-05,-0.00043,-2e-05,-2e-05,0.0,1,14.0
3682,-1e-05,-3e-05,-4e-05,-8e-05,-0.00012,0.0,-2e-05,-1e-05,1,14.0
3683,-1e-05,-3e-05,-4e-05,-8e-05,-0.00012,0.0,-2e-05,-1e-05,1,14.0
3684,-1e-05,-3e-05,-4e-05,-8e-05,-0.00012,0.0,-2e-05,-1e-05,1,14.0
3685,-1e-05,-3e-05,-4e-05,-8e-05,-0.00012,0.0,-2e-05,-1e-05,1,14.0
3686,-1e-05,-3e-05,-4e-05,-8e-05,-0.00012,0.0,-2e-05,-1e-05,1,14.0
3688,-1e-05,-3e-05,-4e-05,-8e-05,-0.00012,0.0,-2e-05,-1e-05,1,14.0
3689,-1e-05,0.0,3e-05,0.0001,0.00015,0.0,0.0,0.0,1,14.0
3690,0.0,-1e-05,-1e-05,-9e-05,4e-05,-1e-05,-2e-05,-2e-05,1,14.0
3691,-3e-05,-1e-05,-2e-05,1e-05,0.00025,0.0,-1e-05,-2e-05,1,14.0
3692,-3e-05,-1e-05,-2e-05,1e-05,0.00025,0.0,-1e-05,-2e-05,1,14.0
3693,-3e-05,-1e-05,-2e-05,1e-05,0.00025,0.0,-1e-05,-2e-05,1,14.0
3694,-3e-05,-1e-05,-2e-05,1e-05,0.00025,0.0,-1e-05,-2e-05,1,14.0
3695,-3e-05,-1e-05,-2e-05,1e-05,0.00025,0.0,-1e-05,-2e-05,1,14.0
3696,-3e-05,-1e-05,-2e-05,1e-05,0.00025,0.0,-1e-05,-2e-05,1,14.0
3697,-3e-05,-1e-05,-2e-05,1e-05,0.00025,0.0,-1e-05,-2e-05,1,14.0
3698,-3e-05,-1e-05,-2e-05,1e-05,0.00025,0.0,-1e-05,-2e-05,1,14.0
3699,-3e-05,-1e-05,-2e-05,1e-05,0.00025,0.0,-1e-05,-2e-05,1,14.0
3700,-3e-05,-1e-05,-2e-05,1e-05,0.00025,0.0,-1e-05,-2e-05,1,14.0
3701,-3e-05,-1e-05,-2e-05,1e-05,0.00025,0.0,-1e-05,-2e-05,1,14.0
3702,-3e-05,-1e-05,-2e-05,1e-05,0.00025,0.0,-1e-05,-2e-05,1,14.0
3703,-3e-05,-1e-05,-2e-05,1e-05,0.00025,0.0,-1e-05,-2e-05,1,14.0
3704,-3e-05,-1e-05,-2e-05,1e-05,0.00025,0.0,-1e-05,-2e-05,1,14.0
3705,-3e-05,-1e-05,-2e-05,1e-05,0.00025,0.0,-1e-05,-2e-05,1,14.0
3706,-3e-05,-1e-05,-2e-05,1e-05,0.00025,0.0,-1e-05,-2e-05,1,14.0
3707,-3e-05,-1e-05,-2e-05,1e-05,0.00025,0.0,-1e-05,-2e-05,1,14.0
3708,-3e-05,-1e-05,-2e-05,1e-05,0.00025,0.0,-1e-05,-2e-05,1,14.0
3709,-3e-05,-1e-05,-2e-05,1e-05,0.00025,0.0,-1e-05,-2e-05,1,14.0
3710,-3e-05,-1e-05,-2e-05,1e-05,0.00025,0.0,-1e-05,-2e-05,1,14.0
3711,-3e-05,-1e-05,-2e-05,1e-05,0.00025,0.0,-1e-05,-2e-05,1,14.0
3712,-3e-05,-1e-05,-2e-05,1e-05,0.00025,0.0,-1e-05,-2e-05,1,14.0
3713,-1e-05,2e-05,2e-05,-3e-05,5e-05,-1e-05,0.0,-2e-05,1,14.0
3714,1e-05,-1e-05,2e-05,7e-05,-1e-05,-2e-05,-1e-05,-2e-05,1,14.0
3715,1e-05,-1e-05,2e-05,7e-05,-1e-05,-2e-05,-1e-05,-2e-05,1,14.0
3716,1e-05,-1e-05,2e-05,7e-05,-1e-05,-2e-05,-1e-05,-2e-05,1,14.0
3717,1e-05,-1e-05,2e-05,7e-05,-1e-05,-2e-05,-1e-05,-2e-05,1,14.0
3718,1e-05,-1e-05,2e-05,7e-05,-1e-05,-2e-05,-1e-05,-2e-05,1,14.0
3719,1e-05,-1e-05,2e-05,7e-05,-1e-05,-2e-05,-1e-05,-2e-05,1,14.0
3720,1e-05,-1e-05,2e-05,7e-05,-1e-05,-2e-05,-1e-05,-2e-05,1,14.0
3721,1e-05,-1e-05,2e-05,7e-05,-1e-05,-2e-05,-1e-05,-2e-05,1,14.0
3722,1e-05,-1e-05,2e-05,7e-05,-1e-05,-2e-05,-1e-05,-2e-05,1,14.0
3723,1e-05,-1e-05,2e-05,7e-05,-1e-05,-2e-05,-1e-05,-2e-05,1,14.0
3724,1e-05,-1e-05,2e-05,7e-05,-1e-05,-2e-05,-1e-05,-2e-05,1,14.0
3725,1e-05,-1e-05,2e-05,7e-05,-1e-05,-2e-05,-1e-05,-2e-05,1,14.0
3726,0.0,-2e-05,-2e-05,3e-05,0.00026,1e-05,0.0,-1e-05,1,14.0
3727,0.0,-2e-05,-2e-05,3e-05,0.00026,1e-05,0.0,-1e-05,1,14.0
3728,0.0,-2e-05,-2e-05,3e-05,0.00026,1e-05,0.0,-1e-05,1,14.0
3729,0.0,-2e-05,-2e-05,3e-05,0.00026,1e-05,0.0,-1e-05,1,14.0
3730,0.0,-2e-05,-2e-05,3e-05,0.00026,1e-05,0.0,-1e-05,1,14.0
3731,0.0,-2e-05,-2e-05,3e-05,0.00026,1e-05,0.0,-1e-05,1,14.0
3732,0.0,-2e-05,-2e-05,3e-05,0.00026,1e-05,0.0,-1e-05,1,14.0
3733,0.0,-2e-05,-2e-05,3e-05,0.00026,1e-05,0.0,-1e-05,1,14.0
3734,0.0,-2e-05,-2e-05,3e-05,0.00026,1e-05,0.0,-1e-05,1,14.0
3735,-2e-05,-2e-05,1e-05,0.0,-0.0001,-2e-05,-1e-05,-2e-05,1,14.0
3736,-2e-05,-2e-05,1e-05,0.0,-0.0001,-2e-05,-1e-05,-2e-05,1,14.0
3738,-2e-05,-2e-05,1e-05,0.0,-0.0001,-2e-05,-1e-05,-2e-05,1,14.0
3739,-2e-05,-2e-05,1e-05,0.0,-0.0001,-2e-05,-1e-05,-2e-05,1,14.0
3740,-2e-05,-2e-05,1e-05,0.0,-0.0001,-2e-05,-1e-05,-2e-05,1,14.0
3741,-2e-05,-2e-05,1e-05,0.0,-0.0001,-2e-05,-1e-05,-2e-05,1,14.0
3742,-2e-05,-2e-05,1e-05,0.0,-0.0001,-2e-05,-1e-05,-2e-05,1,14.0
3743,-2e-05,-2e-05,1e-05,0.0,-0.0001,-2e-05,-1e-05,-2e-05,1,14.0
3744,-2e-05,-2e-05,1e-05,0.0,-0.0001,-2e-05,-1e-05,-2e-05,1,14.0
3745,-2e-05,-2e-05,1e-05,0.0,-0.0001,-2e-05,-1e-05,-2e-05,1,14.0
3746,-2e-05,-2e-05,1e-05,0.0,-0.0001,-2e-05,-1e-05,-2e-05,1,14.0
3747,-2e-05,-2e-05,1e-05,0.0,-0.0001,-2e-05,-1e-05,-2e-05,1,14.0
3748,-2e-05,-2e-05,1e-05,0.0,-0.0001,-2e-05,-1e-05,-2e-05,1,14.0
3749,0.0,0.0,0.0,5e-05,0.0002,4e-05,-1e-05,-1e-05,1,14.0
3750,-1e-05,0.0,2e-05,4e-05,-0.00013,-4e-05,0.0,-1e-05,1,14.0
3751,-1e-05,0.0,-2e-05,1e-05,3e-05,2e-05,0.0,0.0,1,14.0
3752,-1e-05,0.0,-2e-05,1e-05,3e-05,2e-05,0.0,0.0,1,14.0
3753,-1e-05,0.0,-2e-05,1e-05,3e-05,2e-05,0.0,0.0,1,14.0
3754,-1e-05,0.0,-2e-05,1e-05,3e-05,2e-05,0.0,0.0,1,14.0
3755,-1e-05,0.0,-2e-05,1e-05,3e-05,2e-05,0.0,0.0,1,14.0
3756,-1e-05,0.0,-2e-05,1e-05,3e-05,2e-05,0.0,0.0,1,14.0
3757,-1e-05,0.0,-2e-05,1e-05,3e-05,2e-05,0.0,0.0,1,14.0
3758,-1e-05,0.0,-2e-05,1e-05,3e-05,2e-05,0.0,0.0,1,14.0
3759,-1e-05,0.0,-2e-05,1e-05,3e-05,2e-05,0.0,0.0,1,14.0
3760,-1e-05,0.0,-2e-05,1e-05,3e-05,2e-05,0.0,0.0,1,14.0
3761,-1e-05,0.0,-2e-05,1e-05,3e-05,2e-05,0.0,0.0,1,14.0
3762,-1e-05,0.0,-2e-05,1e-05,3e-05,2e-05,0.0,0.0,1,14.0
3763,-1e-05,0.0,-2e-05,1e-05,3e-05,2e-05,0.0,0.0,1,14.0
3764,-1e-05,0.0,-2e-05,1e-05,3e-05,2e-05,0.0,0.0,1,14.0
3765,-1e-05,0.0,-2e-05,1e-05,3e-05,2e-05,0.0,0.0,1,14.0
3766,-1e-05,0.0,-2e-05,1e-05,3e-05,2e-05,0.0,0.0,1,14.0
3767,-1e-05,0.0,-2e-05,1e-05,3e-05,2e-05,0.0,0.0,1,14.0
3768,-1e-05,0.0,-2e-05,1e-05,3e-05,2e-05,0.0,0.0,1,14.0
3769,-1e-05,0.0,-2e-05,1e-05,3e-05,2e-05,0.0,0.0,1,14.0
3770,-1e-05,0.0,-2e-05,1e-05,3e-05,2e-05,0.0,0.0,1,14.0
3771,-1e-05,0.0,-2e-05,1e-05,3e-05,2e-05,0.0,0.0,1,14.0
3772,-1e-05,0.0,-2e-05,1e-05,3e-05,2e-05,0.0,0.0,1,14.0
3773,-2e-05,-4e-05,-5e-05,-8e-05,-5e-05,1e-05,1e-05,-1e-05,1,14.0
3774,-2e-05,-4e-05,-5e-05,-8e-05,-5e-05,1e-05,1e-05,-1e-05,1,14.0
3775,-2e-05,-4e-05,-5e-05,-8e-05,-5e-05,1e-05,1e-05,-1e-05,1,14.0
3776,-2e-05,-4e-05,-5e-05,-8e-05,-5e-05,1e-05,1e-05,-1e-05,1,14.0
3777,-2e-05,-4e-05,-5e-05,-8e-05,-5e-05,1e-05,1e-05,-1e-05,1,14.0
3778,0.0,2e-05,0.0,-3e-05,-1e-05,-1e-05,0.0,-1e-05,1,14.0
3779,0.0,2e-05,0.0,-3e-05,-1e-05,-1e-05,0.0,-1e-05,1,14.0
3780,0.0,2e-05,0.0,-3e-05,-1e-05,-1e-05,0.0,-1e-05,1,14.0
3781,0.0,2e-05,0.0,-3e-05,-1e-05,-1e-05,0.0,-1e-05,1,14.0
3782,0.0,2e-05,0.0,-3e-05,-1e-05,-1e-05,0.0,-1e-05,1,14.0
3783,0.0,2e-05,0.0,-3e-05,-1e-05,-1e-05,0.0,-1e-05,1,14.0
3784,0.0,2e-05,0.0,-3e-05,-1e-05,-1e-05,0.0,-1e-05,1,14.0
3785,0.0,2e-05,0.0,-3e-05,-1e-05,-1e-05,0.0,-1e-05,1,14.0
3786,0.0,-2e-05,-2e-05,1e-05,-4e-05,-1e-05,0.0,0.0,1,14.0
3788,0.0,-2e-05,-2e-05,1e-05,-4e-05,-1e-05,0.0,0.0,1,14.0
3789,0.0,-2e-05,-2e-05,1e-05,-4e-05,-1e-05,0.0,0.0,1,14.0
3790,0.0,-2e-05,-2e-05,1e-05,-4e-05,-1e-05,0.0,0.0,1,14.0
3791,0.0,-2e-05,-2e-05,1e-05,-4e-05,-1e-05,0.0,0.0,1,14.0
3792,0.0,-2e-05,-2e-05,1e-05,-4e-05,-1e-05,0.0,0.0,1,14.0
3793,0.0,-2e-05,-2e-05,1e-05,-4e-05,-1e-05,0.0,0.0,1,14.0
3794,0.0,-2e-05,-2e-05,1e-05,-4e-05,-1e-05,0.0,0.0,1,14.0
3795,0.0,-1e-05,-5e-05,-3e-05,8e-05,1e-05,1e-05,-1e-05,1,14.0
3796,0.0,-1e-05,-5e-05,-3e-05,8e-05,1e-05,1e-05,-1e-05,1,14.0
3797,0.0,-1e-05,-5e-05,-3e-05,8e-05,1e-05,1e-05,-1e-05,1,14.0
3798,0.0,-1e-05,-5e-05,-3e-05,8e-05,1e-05,1e-05,-1e-05,1,14.0
3799,0.0,-1e-05,-5e-05,-3e-05,8e-05,1e-05,1e-05,-1e-05,1,14.0
3800,0.0,-1e-05,-5e-05,-3e-05,8e-05,1e-05,1e-05,-1e-05,1,14.0
3801,0.0,-1e-05,-5e-05,-3e-05,8e-05,1e-05,1e-05,-1e-05,1,14.0
3802,0.0,-1e-05,-5e-05,-3e-05,8e-05,1e-05,1e-05,-1e-05,1,14.0
3803,0.0,-1e-05,-5e-05,-3e-05,8e-05,1e-05,1e-05,-1e-05,1,14.0
3804,0.0,-1e-05,-5e-05,-3e-05,8e-05,1e-05,1e-05,-1e-05,1,14.0
3805,0.0,-1e-05,-5e-05,-3e-05,8e-05,1e-05,1e-05,-1e-05,1,14.0
3806,0.0,-1e-05,-5e-05,-3e-05,8e-05,1e-05,1e-05,-1e-05,1,14.0
3807,0.0,-1e-05,-5e-05,-3e-05,8e-05,1e-05,1e-05,-1e-05,1,14.0
3808,0.0,-1e-05,-5e-05,-3e-05,8e-05,1e-05,1e-05,-1e-05,1,14.0
3809,-2e-05,1e-05,1e-05,0.00012,-2e-05,-1e-05,-1e-05,-2e-05,1,14.0
3810,-1e-05,-3e-05,-3e-05,-0.00013,-1e-05,-2e-05,-1e-05,0.0,1,14.0
3811,-1e-05,-1e-05,2e-05,-2e-05,0.0,-2e-05,-2e-05,-3e-05,1,14.0
3812,-1e-05,-1e-05,2e-05,-2e-05,0.0,-2e-05,-2e-05,-3e-05,1,14.0
3813,-1e-05,-1e-05,2e-05,-2e-05,0.0,-2e-05,-2e-05,-3e-05,1,14.0
3814,-1e-05,-1e-05,2e-05,-2e-05,0.0,-2e-05,-2e-05,-3e-05,1,14.0
3815,-1e-05,-1e-05,2e-05,-2e-05,0.0,-2e-05,-2e-05,-3e-05,1,14.0
3816,-1e-05,-1e-05,2e-05,-2e-05,0.0,-2e-05,-2e-05,-3e-05,1,14.0
3817,-1e-05,-1e-05,2e-05,-2e-05,0.0,-2e-05,-2e-05,-3e-05,1,14.0
3818,-1e-05,-1e-05,2e-05,-2e-05,0.0,-2e-05,-2e-05,-3e-05,1,14.0
3820,-1e-05,-1e-05,2e-05,-2e-05,0.0,-2e-05,-2e-05,-3e-05,1,14.0
3821,-1e-05,-1e-05,2e-05,-2e-05,0.0,-2e-05,-2e-05,-3e-05,1,14.0
3822,-1e-05,-1e-05,2e-05,-2e-05,0.0,-2e-05,-2e-05,-3e-05,1,14.0
3823,-1e-05,-1e-05,2e-05,-2e-05,0.0,-2e-05,-2e-05,-3e-05,1,14.0
3824,-1e-05,-1e-05,2e-05,-2e-05,0.0,-2e-05,-2e-05,-3e-05,1,14.0
3825,-1e-05,-1e-05,2e-05,-2e-05,0.0,-2e-05,-2e-05,-3e-05,1,14.0
3826,-1e-05,-1e-05,2e-05,-2e-05,0.0,-2e-05,-2e-05,-3e-05,1,14.0
3827,-1e-05,-1e-05,2e-05,-2e-05,0.0,-2e-05,-2e-05,-3e-05,1,14.0
3828,-1e-05,-1e-05,2e-05,-2e-05,0.0,-2e-05,-2e-05,-3e-05,1,14.0
3829,-1e-05,-1e-05,2e-05,-2e-05,0.0,-2e-05,-2e-05,-3e-05,1,14.0
3830,-1e-05,-1e-05,2e-05,-2e-05,0.0,-2e-05,-2e-05,-3e-05,1,14.0
3831,-1e-05,-1e-05,2e-05,-2e-05,0.0,-2e-05,-2e-05,-3e-05,1,14.0
3832,-1e-05,0.0,-1e-05,0.0001,3e-05,-1e-05,-2e-05,-2e-05,1,14.0
3833,-1e-05,0.0,-1e-05,0.0001,3e-05,-1e-05,-2e-05,-2e-05,1,14.0
3834,-2e-05,-1e-05,-1e-05,-2e-05,-4e-05,-2e-05,-3e-05,0.0,1,14.0
3835,-2e-05,-1e-05,-1e-05,-2e-05,-4e-05,-2e-05,-3e-05,0.0,1,14.0
3836,-2e-05,-1e-05,-1e-05,-2e-05,-4e-05,-2e-05,-3e-05,0.0,1,14.0
3838,-2e-05,-1e-05,-1e-05,-2e-05,-4e-05,-2e-05,-3e-05,0.0,1,14.0
3839,-2e-05,-1e-05,-1e-05,-2e-05,-4e-05,-2e-05,-3e-05,0.0,1,14.0
3840,-2e-05,-1e-05,-1e-05,-2e-05,-4e-05,-2e-05,-3e-05,0.0,1,14.0
3841,-2e-05,-1e-05,-1e-05,-2e-05,-4e-05,-2e-05,-3e-05,0.0,1,14.0
3842,-2e-05,-1e-05,-1e-05,-2e-05,-4e-05,-2e-05,-3e-05,0.0,1,14.0
3843,-2e-05,-1e-05,-1e-05,-2e-05,-4e-05,-2e-05,-3e-05,0.0,1,14.0
3844,-2e-05,-1e-05,-1e-05,-2e-05,-4e-05,-2e-05,-3e-05,0.0,1,14.0
3845,-2e-05,-1e-05,-1e-05,-2e-05,-4e-05,-2e-05,-3e-05,0.0,1,14.0
3846,0.0,1e-05,3e-05,3e-05,-6e-05,-1e-05,-1e-05,0.0,1,14.0
3847,0.0,1e-05,3e-05,3e-05,-6e-05,-1e-05,-1e-05,0.0,1,14.0
3848,0.0,1e-05,3e-05,3e-05,-6e-05,-1e-05,-1e-05,0.0,1,14.0
3849,0.0,1e-05,3e-05,3e-05,-6e-05,-1e-05,-1e-05,0.0,1,14.0
3850,0.0,1e-05,3e-05,3e-05,-6e-05,-1e-05,-1e-05,0.0,1,14.0
3851,0.0,1e-05,3e-05,3e-05,-6e-05,-1e-05,-1e-05,0.0,1,14.0
3852,0.0,1e-05,3e-05,3e-05,-6e-05,-1e-05,-1e-05,0.0,1,14.0
3853,0.0,1e-05,3e-05,3e-05,-6e-05,-1e-05,-1e-05,0.0,1,14.0
3854,0.0,1e-05,3e-05,3e-05,-6e-05,-1e-05,-1e-05,0.0,1,14.0
3855,-1e-05,-3e-05,-3e-05,-2e-05,0.00025,-2e-05,-1e-05,1e-05,1,14.0
3856,-1e-05,-3e-05,-3e-05,-2e-05,0.00025,-2e-05,-1e-05,1e-05,1,14.0
3857,-1e-05,-3e-05,-3e-05,-2e-05,0.00025,-2e-05,-1e-05,1e-05,1,14.0
3858,-1e-05,-3e-05,-3e-05,-2e-05,0.00025,-2e-05,-1e-05,1e-05,1,14.0
3859,-1e-05,-3e-05,-3e-05,-2e-05,0.00025,-2e-05,-1e-05,1e-05,1,14.0
3860,-1e-05,-3e-05,-3e-05,-2e-05,0.00025,-2e-05,-1e-05,1e-05,1,14.0
3861,-1e-05,-3e-05,-3e-05,-2e-05,0.00025,-2e-05,-1e-05,1e-05,1,14.0
3862,-1e-05,-3e-05,-3e-05,-2e-05,0.00025,-2e-05,-1e-05,1e-05,1,14.0
3863,-1e-05,-3e-05,-3e-05,-2e-05,0.00025,-2e-05,-1e-05,1e-05,1,14.0
3864,-1e-05,-3e-05,-3e-05,-2e-05,0.00025,-2e-05,-1e-05,1e-05,1,14.0
3865,-1e-05,-3e-05,-3e-05,-2e-05,0.00025,-2e-05,-1e-05,1e-05,1,14.0
3866,-1e-05,-3e-05,-3e-05,-2e-05,0.00025,-2e-05,-1e-05,1e-05,1,14.0
3867,-1e-05,-3e-05,-3e-05,-2e-05,0.00025,-2e-05,-1e-05,1e-05,1,14.0
3868,-1e-05,-3e-05,-3e-05,-2e-05,0.00025,-2e-05,-1e-05,1e-05,1,14.0
3869,-1e-05,-3e-05,-3e-05,-2e-05,0.00025,-2e-05,-1e-05,1e-05,1,14.0
3870,-1e-05,1e-05,1e-05,4e-05,4e-05,1e-05,-3e-05,-1e-05,1,14.0
3871,-1e-05,-1e-05,0.0,0.0,-7e-05,-2e-05,-3e-05,-2e-05,1,14.0
3872,-1e-05,1e-05,2e-05,0.0,5e-05,-1e-05,-1e-05,0.0,1,14.0
3873,-1e-05,1e-05,2e-05,0.0,5e-05,-1e-05,-1e-05,0.0,1,14.0
3874,-1e-05,1e-05,2e-05,0.0,5e-05,-1e-05,-1e-05,0.0,1,14.0
3875,-1e-05,1e-05,2e-05,0.0,5e-05,-1e-05,-1e-05,0.0,1,14.0
3876,-1e-05,1e-05,2e-05,0.0,5e-05,-1e-05,-1e-05,0.0,1,14.0
3877,-1e-05,1e-05,2e-05,0.0,5e-05,-1e-05,-1e-05,0.0,1,14.0
3878,-1e-05,1e-05,2e-05,0.0,5e-05,-1e-05,-1e-05,0.0,1,14.0
3879,-1e-05,1e-05,2e-05,0.0,5e-05,-1e-05,-1e-05,0.0,1,14.0
3880,-1e-05,1e-05,2e-05,0.0,5e-05,-1e-05,-1e-05,0.0,1,14.0
3881,-1e-05,1e-05,2e-05,0.0,5e-05,-1e-05,-1e-05,0.0,1,14.0
3882,-1e-05,1e-05,2e-05,0.0,5e-05,-1e-05,-1e-05,0.0,1,14.0
3883,-1e-05,1e-05,2e-05,0.0,5e-05,-1e-05,-1e-05,0.0,1,14.0
3884,-1e-05,1e-05,2e-05,0.0,5e-05,-1e-05,-1e-05,0.0,1,14.0
3885,-1e-05,1e-05,2e-05,0.0,5e-05,-1e-05,-1e-05,0.0,1,14.0
3886,-1e-05,1e-05,2e-05,0.0,5e-05,-1e-05,-1e-05,0.0,1,14.0
3888,-1e-05,1e-05,2e-05,0.0,5e-05,-1e-05,-1e-05,0.0,1,14.0
3889,-1e-05,1e-05,2e-05,0.0,5e-05,-1e-05,-1e-05,0.0,1,14.0
3890,-1e-05,1e-05,2e-05,0.0,5e-05,-1e-05,-1e-05,0.0,1,14.0
3891,-1e-05,1e-05,2e-05,0.0,5e-05,-1e-05,-1e-05,0.0,1,14.0
3892,-1e-05,-4e-05,-5e-05,6e-05,-5e-05,-3e-05,-1e-05,-1e-05,1,14.0
3893,-2e-05,-1e-05,-2e-05,-0.00011,1e-05,-4e-05,-1e-05,-2e-05,1,14.0
3894,0.0,0.0,0.0,4e-05,-3e-05,0.0,1e-05,-2e-05,1,14.0
3895,0.0,0.0,0.0,4e-05,-3e-05,0.0,1e-05,-2e-05,1,14.0
3896,0.0,0.0,0.0,4e-05,-3e-05,0.0,1e-05,-2e-05,1,14.0
3897,0.0,0.0,0.0,4e-05,-3e-05,0.0,1e-05,-2e-05,1,14.0
3898,0.0,0.0,0.0,4e-05,-3e-05,0.0,1e-05,-2e-05,1,14.0
3899,0.0,0.0,0.0,4e-05,-3e-05,0.0,1e-05,-2e-05,1,14.0
3900,0.0,0.0,0.0,4e-05,-3e-05,0.0,1e-05,-2e-05,1,14.0
3901,0.0,0.0,0.0,4e-05,-3e-05,0.0,1e-05,-2e-05,1,14.0
3902,0.0,0.0,0.0,4e-05,-3e-05,0.0,1e-05,-2e-05,1,14.0
3903,0.0,0.0,0.0,4e-05,-3e-05,0.0,1e-05,-2e-05,1,14.0
3904,0.0,0.0,0.0,4e-05,-3e-05,0.0,1e-05,-2e-05,1,14.0
3905,0.0,0.0,0.0,4e-05,-3e-05,0.0,1e-05,-2e-05,1,14.0
3906,0.0,0.0,0.0,4e-05,-3e-05,0.0,1e-05,-2e-05,1,14.0
3907,0.0,0.0,0.0,4e-05,-3e-05,0.0,1e-05,-2e-05,1,14.0
3908,0.0,0.0,0.0,4e-05,-3e-05,0.0,1e-05,-2e-05,1,14.0
3909,0.0,0.0,0.0,4e-05,-3e-05,0.0,1e-05,-2e-05,1,14.0
3910,0.0,0.0,0.0,4e-05,-3e-05,0.0,1e-05,-2e-05,1,14.0
3911,0.0,0.0,0.0,4e-05,-3e-05,0.0,1e-05,-2e-05,1,14.0
3912,0.0,0.0,0.0,4e-05,-3e-05,0.0,1e-05,-2e-05,1,14.0
3913,0.0,0.0,0.0,4e-05,-3e-05,0.0,1e-05,-2e-05,1,14.0
3914,0.0,0.0,0.0,4e-05,-3e-05,0.0,1e-05,-2e-05,1,14.0
3915,0.0,-1e-05,0.0,4e-05,5e-05,1e-05,0.0,-1e-05,1,14.0
3916,-2e-05,-1e-05,-4e-05,-4e-05,-0.00012,-2e-05,-1e-05,-1e-05,1,14.0
3917,-2e-05,-1e-05,-4e-05,-4e-05,-0.00012,-2e-05,-1e-05,-1e-05,1,14.0
3918,-2e-05,-1e-05,-4e-05,-4e-05,-0.00012,-2e-05,-1e-05,-1e-05,1,14.0
3919,-2e-05,-1e-05,-4e-05,-4e-05,-0.00012,-2e-05,-1e-05,-1e-05,1,14.0
