time,channel1,channel2,channel3,channel4,channel5,channel6,channel7,channel8,class,label
1303,1e-05,0.0,2e-05,9e-05,6e-05,-3e-05,0.0,-1e-05,1,20.0
1304,1e-05,0.0,2e-05,9e-05,6e-05,-3e-05,0.0,-1e-05,1,20.0
1305,1e-05,0.0,2e-05,9e-05,6e-05,-3e-05,0.0,-1e-05,1,20.0
1306,1e-05,0.0,2e-05,9e-05,6e-05,-3e-05,0.0,-1e-05,1,20.0
1307,1e-05,0.0,2e-05,9e-05,6e-05,-3e-05,0.0,-1e-05,1,20.0
1308,1e-05,0.0,2e-05,9e-05,6e-05,-3e-05,0.0,-1e-05,1,20.0
1309,1e-05,0.0,2e-05,9e-05,6e-05,-3e-05,0.0,-1e-05,1,20.0
1310,1e-05,0.0,2e-05,9e-05,6e-05,-3e-05,0.0,-1e-05,1,20.0
1311,1e-05,0.0,2e-05,9e-05,6e-05,-3e-05,0.0,-1e-05,1,20.0
1313,1e-05,0.0,2e-05,9e-05,6e-05,-3e-05,0.0,-1e-05,1,20.0
1314,0.0,-3e-05,-3e-05,-6e-05,-3e-05,-9e-05,0.0,1e-05,1,20.0
1315,0.0,-3e-05,-3e-05,-6e-05,-3e-05,-9e-05,0.0,1e-05,1,20.0
1316,0.0,-3e-05,-3e-05,-6e-05,-3e-05,-9e-05,0.0,1e-05,1,20.0
1317,0.0,-3e-05,-3e-05,-6e-05,-3e-05,-9e-05,0.0,1e-05,1,20.0
1318,0.0,-3e-05,-3e-05,-6e-05,-3e-05,-9e-05,0.0,1e-05,1,20.0
1319,0.0,-3e-05,-3e-05,-6e-05,-3e-05,-9e-05,0.0,1e-05,1,20.0
1320,0.0,-3e-05,-3e-05,-6e-05,-3e-05,-9e-05,0.0,1e-05,1,20.0
1321,0.0,-3e-05,-3e-05,-6e-05,-3e-05,-9e-05,0.0,1e-05,1,20.0
1322,0.0,-3e-05,-3e-05,-6e-05,-3e-05,-9e-05,0.0,1e-05,1,20.0
1323,0.0,-3e-05,-3e-05,-6e-05,-3e-05,-9e-05,0.0,1e-05,1,20.0
1324,0.0,-3e-05,-3e-05,-6e-05,-3e-05,-9e-05,0.0,1e-05,1,20.0
1325,0.0,-3e-05,-3e-05,-6e-05,-3e-05,-9e-05,0.0,1e-05,1,20.0
1326,0.0,-3e-05,-3e-05,-6e-05,-3e-05,-9e-05,0.0,1e-05,1,20.0
1327,0.0,-3e-05,-3e-05,-6e-05,-3e-05,-9e-05,0.0,1e-05,1,20.0
1328,0.0,-3e-05,-3e-05,-6e-05,-3e-05,-9e-05,0.0,1e-05,1,20.0
1329,-1e-05,3e-05,7e-05,-4e-05,-6e-05,-0.00019,-2e-05,-2e-05,1,20.0
1330,-1e-05,3e-05,7e-05,-4e-05,-6e-05,-0.00019,-2e-05,-2e-05,1,20.0
1331,-1e-05,3e-05,7e-05,-4e-05,-6e-05,-0.00019,-2e-05,-2e-05,1,20.0
1332,-1e-05,3e-05,7e-05,-4e-05,-6e-05,-0.00019,-2e-05,-2e-05,1,20.0
1333,-1e-05,3e-05,7e-05,-4e-05,-6e-05,-0.00019,-2e-05,-2e-05,1,20.0
1334,-1e-05,3e-05,7e-05,-4e-05,-6e-05,-0.00019,-2e-05,-2e-05,1,20.0
1335,-1e-05,3e-05,7e-05,-4e-05,-6e-05,-0.00019,-2e-05,-2e-05,1,20.0
1336,-1e-05,3e-05,7e-05,-4e-05,-6e-05,-0.00019,-2e-05,-2e-05,1,20.0
1338,-1e-05,0.0,-4e-05,-6e-05,-4e-05,-0.00021,-3e-05,-3e-05,1,20.0
1339,1e-05,-2e-05,-5e-05,-0.0001,-5e-05,0.00011,-1e-05,0.0,1,20.0
1340,1e-05,-2e-05,-5e-05,-0.0001,-5e-05,0.00011,-1e-05,0.0,1,20.0
1341,1e-05,-2e-05,-5e-05,-0.0001,-5e-05,0.00011,-1e-05,0.0,1,20.0
1342,1e-05,-2e-05,-5e-05,-0.0001,-5e-05,0.00011,-1e-05,0.0,1,20.0
1343,1e-05,-2e-05,-5e-05,-0.0001,-5e-05,0.00011,-1e-05,0.0,1,20.0
1344,1e-05,-2e-05,-5e-05,-0.0001,-5e-05,0.00011,-1e-05,0.0,1,20.0
1345,1e-05,-2e-05,-5e-05,-0.0001,-5e-05,0.00011,-1e-05,0.0,1,20.0
1346,1e-05,-2e-05,-5e-05,-0.0001,-5e-05,0.00011,-1e-05,0.0,1,20.0
1347,1e-05,-2e-05,-5e-05,-0.0001,-5e-05,0.00011,-1e-05,0.0,1,20.0
1348,1e-05,-2e-05,-5e-05,-0.0001,-5e-05,0.00011,-1e-05,0.0,1,20.0
1349,1e-05,-2e-05,-5e-05,-0.0001,-5e-05,0.00011,-1e-05,0.0,1,20.0
1350,1e-05,-2e-05,-5e-05,-0.0001,-5e-05,0.00011,-1e-05,0.0,1,20.0
1351,1e-05,-2e-05,-5e-05,-0.0001,-5e-05,0.00011,-1e-05,0.0,1,20.0
1352,1e-05,-2e-05,-5e-05,-0.0001,-5e-05,0.00011,-1e-05,0.0,1,20.0
1353,1e-05,-2e-05,-5e-05,-0.0001,-5e-05,0.00011,-1e-05,0.0,1,20.0
1354,1e-05,-2e-05,-5e-05,-0.0001,-5e-05,0.00011,-1e-05,0.0,1,20.0
1355,1e-05,-2e-05,-5e-05,-0.0001,-5e-05,0.00011,-1e-05,0.0,1,20.0
1356,1e-05,-2e-05,-5e-05,-0.0001,-5e-05,0.00011,-1e-05,0.0,1,20.0
1357,1e-05,-2e-05,-5e-05,-0.0001,-5e-05,0.00011,-1e-05,0.0,1,20.0
1358,1e-05,-2e-05,-5e-05,-0.0001,-5e-05,0.00011,-1e-05,0.0,1,20.0
1359,1e-05,-2e-05,-5e-05,-0.0001,-5e-05,0.00011,-1e-05,0.0,1,20.0
1360,-1e-05,-2e-05,-2e-05,5e-05,-4e-05,4e-05,-1e-05,0.0,1,20.0
1361,-1e-05,1e-05,1e-05,-7e-05,1e-05,0.00022,-3e-05,-2e-05,1,20.0
1362,-1e-05,1e-05,1e-05,-7e-05,1e-05,0.00022,-3e-05,-2e-05,1,20.0
1363,-1e-05,1e-05,1e-05,-7e-05,1e-05,0.00022,-3e-05,-2e-05,1,20.0
1364,-1e-05,1e-05,1e-05,-7e-05,1e-05,0.00022,-3e-05,-2e-05,1,20.0
1365,-1e-05,1e-05,1e-05,-7e-05,1e-05,0.00022,-3e-05,-2e-05,1,20.0
1366,-1e-05,1e-05,1e-05,-7e-05,1e-05,0.00022,-3e-05,-2e-05,1,20.0
1367,-1e-05,1e-05,1e-05,-7e-05,1e-05,0.00022,-3e-05,-2e-05,1,20.0
1368,-1e-05,1e-05,1e-05,-7e-05,1e-05,0.00022,-3e-05,-2e-05,1,20.0
1369,-1e-05,1e-05,1e-05,-7e-05,1e-05,0.00022,-3e-05,-2e-05,1,20.0
1370,-1e-05,1e-05,1e-05,-7e-05,1e-05,0.00022,-3e-05,-2e-05,1,20.0
1371,-1e-05,1e-05,1e-05,-7e-05,1e-05,0.00022,-3e-05,-2e-05,1,20.0
1372,-1e-05,1e-05,1e-05,-7e-05,1e-05,0.00022,-3e-05,-2e-05,1,20.0
1373,-1e-05,1e-05,1e-05,-7e-05,1e-05,0.00022,-3e-05,-2e-05,1,20.0
1374,-2e-05,0.0,2e-05,0.0002,4e-05,0.00014,0.0,-1e-05,1,20.0
1375,-2e-05,0.0,2e-05,0.0002,4e-05,0.00014,0.0,-1e-05,1,20.0
1376,-2e-05,0.0,2e-05,0.0002,4e-05,0.00014,0.0,-1e-05,1,20.0
1377,-2e-05,0.0,2e-05,0.0002,4e-05,0.00014,0.0,-1e-05,1,20.0
1378,-2e-05,0.0,2e-05,0.0002,4e-05,0.00014,0.0,-1e-05,1,20.0
1379,-2e-05,0.0,2e-05,0.0002,4e-05,0.00014,0.0,-1e-05,1,20.0
1380,-2e-05,0.0,2e-05,0.0002,4e-05,0.00014,0.0,-1e-05,1,20.0
1381,-1e-05,-2e-05,-2e-05,-2e-05,-7e-05,-0.00033,-1e-05,1e-05,1,20.0
1382,-1e-05,-2e-05,-2e-05,-2e-05,-7e-05,-0.00033,-1e-05,1e-05,1,20.0
1383,-1e-05,-2e-05,-2e-05,-2e-05,-7e-05,-0.00033,-1e-05,1e-05,1,20.0
1384,-1e-05,-2e-05,-2e-05,-2e-05,-7e-05,-0.00033,-1e-05,1e-05,1,20.0
1385,-1e-05,-2e-05,-2e-05,-2e-05,-7e-05,-0.00033,-1e-05,1e-05,1,20.0
1386,-1e-05,-2e-05,-2e-05,-2e-05,-7e-05,-0.00033,-1e-05,1e-05,1,20.0
1388,-1e-05,-2e-05,-2e-05,-2e-05,-7e-05,-0.00033,-1e-05,1e-05,1,20.0
1389,-1e-05,-2e-05,-2e-05,-2e-05,-7e-05,-0.00033,-1e-05,1e-05,1,20.0
1390,-1e-05,-2e-05,-2e-05,-2e-05,-7e-05,-0.00033,-1e-05,1e-05,1,20.0
1391,-1e-05,-2e-05,-2e-05,-2e-05,-7e-05,-0.00033,-1e-05,1e-05,1,20.0
1392,-1e-05,-2e-05,-2e-05,-2e-05,-7e-05,-0.00033,-1e-05,1e-05,1,20.0
1393,-1e-05,-2e-05,-2e-05,-2e-05,-7e-05,-0.00033,-1e-05,1e-05,1,20.0
1394,-1e-05,-2e-05,-2e-05,-2e-05,-7e-05,-0.00033,-1e-05,1e-05,1,20.0
1395,-1e-05,-2e-05,-2e-05,-2e-05,-7e-05,-0.00033,-1e-05,1e-05,1,20.0
1396,-1e-05,-2e-05,-2e-05,-2e-05,-7e-05,-0.00033,-1e-05,1e-05,1,20.0
1397,0.0,-2e-05,-5e-05,-0.00013,-6e-05,-0.00018,-5e-05,-2e-05,1,20.0
1398,0.0,-2e-05,-5e-05,-0.00013,-6e-05,-0.00018,-5e-05,-2e-05,1,20.0
1399,0.0,0.0,0.0,2e-05,2e-05,2e-05,1e-05,-1e-05,1,20.0
1400,0.0,0.0,0.0,2e-05,2e-05,2e-05,1e-05,-1e-05,1,20.0
1401,0.0,0.0,0.0,2e-05,2e-05,2e-05,1e-05,-1e-05,1,20.0
1402,0.0,0.0,0.0,2e-05,2e-05,2e-05,1e-05,-1e-05,1,20.0
1403,0.0,0.0,0.0,2e-05,2e-05,2e-05,1e-05,-1e-05,1,20.0
1404,0.0,0.0,0.0,2e-05,2e-05,2e-05,1e-05,-1e-05,1,20.0
1405,0.0,0.0,0.0,2e-05,2e-05,2e-05,1e-05,-1e-05,1,20.0
1406,0.0,0.0,0.0,2e-05,2e-05,2e-05,1e-05,-1e-05,1,20.0
1407,0.0,0.0,0.0,2e-05,2e-05,2e-05,1e-05,-1e-05,1,20.0
1408,0.0,0.0,0.0,2e-05,2e-05,2e-05,1e-05,-1e-05,1,20.0
1409,0.0,0.0,0.0,2e-05,2e-05,2e-05,1e-05,-1e-05,1,20.0
1410,0.0,0.0,0.0,2e-05,2e-05,2e-05,1e-05,-1e-05,1,20.0
1411,0.0,0.0,0.0,2e-05,2e-05,2e-05,1e-05,-1e-05,1,20.0
1413,0.0,0.0,0.0,2e-05,2e-05,2e-05,1e-05,-1e-05,1,20.0
1414,0.0,0.0,0.0,2e-05,2e-05,2e-05,1e-05,-1e-05,1,20.0
1415,0.0,0.0,0.0,2e-05,2e-05,2e-05,1e-05,-1e-05,1,20.0
1416,0.0,0.0,0.0,2e-05,2e-05,2e-05,1e-05,-1e-05,1,20.0
1417,0.0,0.0,0.0,2e-05,2e-05,2e-05,1e-05,-1e-05,1,20.0
1418,0.0,0.0,0.0,2e-05,2e-05,2e-05,1e-05,-1e-05,1,20.0
1419,0.0,0.0,0.0,2e-05,2e-05,2e-05,1e-05,-1e-05,1,20.0
1420,-3e-05,-5e-05,-0.00015,-0.00022,-0.00011,-0.00014,-1e-05,-2e-05,1,20.0
1421,0.0,-1e-05,-2e-05,-9e-05,-2e-05,-0.00033,-2e-05,-1e-05,1,20.0
1422,0.0,-1e-05,-2e-05,-9e-05,-2e-05,-0.00033,-2e-05,-1e-05,1,20.0
1423,0.0,-1e-05,-2e-05,-9e-05,-2e-05,-0.00033,-2e-05,-1e-05,1,20.0
1424,0.0,-1e-05,-2e-05,-9e-05,-2e-05,-0.00033,-2e-05,-1e-05,1,20.0
1425,0.0,-1e-05,-2e-05,-9e-05,-2e-05,-0.00033,-2e-05,-1e-05,1,20.0
1426,0.0,-1e-05,-2e-05,-9e-05,-2e-05,-0.00033,-2e-05,-1e-05,1,20.0
1427,0.0,-1e-05,-2e-05,-9e-05,-2e-05,-0.00033,-2e-05,-1e-05,1,20.0
1428,0.0,-1e-05,-2e-05,-9e-05,-2e-05,-0.00033,-2e-05,-1e-05,1,20.0
1429,0.0,-1e-05,-2e-05,-9e-05,-2e-05,-0.00033,-2e-05,-1e-05,1,20.0
1430,0.0,-1e-05,-2e-05,-9e-05,-2e-05,-0.00033,-2e-05,-1e-05,1,20.0
1431,0.0,-1e-05,-2e-05,-9e-05,-2e-05,-0.00033,-2e-05,-1e-05,1,20.0
1432,0.0,-1e-05,-2e-05,-9e-05,-2e-05,-0.00033,-2e-05,-1e-05,1,20.0
1433,0.0,-1e-05,-2e-05,-9e-05,-2e-05,-0.00033,-2e-05,-1e-05,1,20.0
1434,-1e-05,2e-05,8e-05,9e-05,7e-05,0.00025,3e-05,-1e-05,1,20.0
1435,-1e-05,2e-05,8e-05,9e-05,7e-05,0.00025,3e-05,-1e-05,1,20.0
1436,-1e-05,2e-05,8e-05,9e-05,7e-05,0.00025,3e-05,-1e-05,1,20.0
1438,-1e-05,2e-05,8e-05,9e-05,7e-05,0.00025,3e-05,-1e-05,1,20.0
1439,-1e-05,2e-05,8e-05,9e-05,7e-05,0.00025,3e-05,-1e-05,1,20.0
1440,-1e-05,2e-05,8e-05,9e-05,7e-05,0.00025,3e-05,-1e-05,1,20.0
1441,-1e-05,1e-05,-3e-05,-8e-05,-7e-05,-0.00015,-2e-05,1e-05,1,20.0
1442,-1e-05,-3e-05,-1e-05,-2e-05,1e-05,1e-05,0.0,0.0,1,20.0
1443,-1e-05,-3e-05,-1e-05,-2e-05,1e-05,1e-05,0.0,0.0,1,20.0
1444,-1e-05,-3e-05,-1e-05,-2e-05,1e-05,1e-05,0.0,0.0,1,20.0
1445,-1e-05,-3e-05,-1e-05,-2e-05,1e-05,1e-05,0.0,0.0,1,20.0
1446,-1e-05,-3e-05,-1e-05,-2e-05,1e-05,1e-05,0.0,0.0,1,20.0
1447,-1e-05,-3e-05,-1e-05,-2e-05,1e-05,1e-05,0.0,0.0,1,20.0
1448,-1e-05,-3e-05,-1e-05,-2e-05,1e-05,1e-05,0.0,0.0,1,20.0
1449,-1e-05,-3e-05,-1e-05,-2e-05,1e-05,1e-05,0.0,0.0,1,20.0
1450,-1e-05,-3e-05,-1e-05,-2e-05,1e-05,1e-05,0.0,0.0,1,20.0
1451,-1e-05,-3e-05,-1e-05,-2e-05,1e-05,1e-05,0.0,0.0,1,20.0
1453,-1e-05,-3e-05,-1e-05,-2e-05,1e-05,1e-05,0.0,0.0,1,20.0
1454,-1e-05,-3e-05,-1e-05,-2e-05,1e-05,1e-05,0.0,0.0,1,20.0
1455,-1e-05,-3e-05,-1e-05,-2e-05,1e-05,1e-05,0.0,0.0,1,20.0
1456,-1e-05,-3e-05,-1e-05,-2e-05,1e-05,1e-05,0.0,0.0,1,20.0
1457,0.0,-1e-05,3e-05,-4e-05,0.0,-4e-05,-1e-05,1e-05,1,20.0
1459,0.0,-1e-05,3e-05,-4e-05,0.0,-4e-05,-1e-05,1e-05,1,20.0
1460,-2e-05,-2e-05,3e-05,1e-05,9e-05,-0.00016,1e-05,-1e-05,1,20.0
1461,-2e-05,-2e-05,3e-05,1e-05,9e-05,-0.00016,1e-05,-1e-05,1,20.0
1462,-2e-05,-2e-05,3e-05,1e-05,9e-05,-0.00016,1e-05,-1e-05,1,20.0
1463,-2e-05,-2e-05,3e-05,1e-05,9e-05,-0.00016,1e-05,-1e-05,1,20.0
1464,-2e-05,-2e-05,3e-05,1e-05,9e-05,-0.00016,1e-05,-1e-05,1,20.0
1465,-2e-05,-2e-05,3e-05,1e-05,9e-05,-0.00016,1e-05,-1e-05,1,20.0
1466,-2e-05,-2e-05,3e-05,1e-05,9e-05,-0.00016,1e-05,-1e-05,1,20.0
1467,-2e-05,-2e-05,3e-05,1e-05,9e-05,-0.00016,1e-05,-1e-05,1,20.0
1468,-2e-05,-2e-05,3e-05,1e-05,9e-05,-0.00016,1e-05,-1e-05,1,20.0
1469,-2e-05,-2e-05,3e-05,1e-05,9e-05,-0.00016,1e-05,-1e-05,1,20.0
1470,-2e-05,-2e-05,3e-05,1e-05,9e-05,-0.00016,1e-05,-1e-05,1,20.0
1471,-2e-05,-2e-05,3e-05,1e-05,9e-05,-0.00016,1e-05,-1e-05,1,20.0
1472,-2e-05,-2e-05,3e-05,1e-05,9e-05,-0.00016,1e-05,-1e-05,1,20.0
1473,-2e-05,-2e-05,3e-05,1e-05,9e-05,-0.00016,1e-05,-1e-05,1,20.0
1474,-2e-05,-2e-05,3e-05,1e-05,9e-05,-0.00016,1e-05,-1e-05,1,20.0
1475,-2e-05,-2e-05,3e-05,1e-05,9e-05,-0.00016,1e-05,-1e-05,1,20.0
1476,-2e-05,-2e-05,3e-05,1e-05,9e-05,-0.00016,1e-05,-1e-05,1,20.0
1477,-2e-05,-2e-05,3e-05,1e-05,9e-05,-0.00016,1e-05,-1e-05,1,20.0
1478,-2e-05,-2e-05,3e-05,1e-05,9e-05,-0.00016,1e-05,-1e-05,1,20.0
1479,-2e-05,-2e-05,3e-05,1e-05,9e-05,-0.00016,1e-05,-1e-05,1,20.0
1480,-1e-05,3e-05,7e-05,6e-05,-1e-05,0.00014,3e-05,0.0,1,20.0
1481,0.0,-1e-05,1e-05,1e-05,0.0,0.00012,-1e-05,-1e-05,1,20.0
1482,0.0,-1e-05,1e-05,1e-05,0.0,0.00012,-1e-05,-1e-05,1,20.0
1483,0.0,-1e-05,1e-05,1e-05,0.0,0.00012,-1e-05,-1e-05,1,20.0
1484,0.0,-1e-05,1e-05,1e-05,0.0,0.00012,-1e-05,-1e-05,1,20.0
1485,0.0,-1e-05,1e-05,1e-05,0.0,0.00012,-1e-05,-1e-05,1,20.0
1486,0.0,-1e-05,1e-05,1e-05,0.0,0.00012,-1e-05,-1e-05,1,20.0
1488,0.0,-1e-05,1e-05,1e-05,0.0,0.00012,-1e-05,-1e-05,1,20.0
1489,0.0,-1e-05,1e-05,1e-05,0.0,0.00012,-1e-05,-1e-05,1,20.0
1490,0.0,-1e-05,1e-05,1e-05,0.0,0.00012,-1e-05,-1e-05,1,20.0
1491,0.0,-1e-05,1e-05,1e-05,0.0,0.00012,-1e-05,-1e-05,1,20.0
1492,0.0,-1e-05,1e-05,1e-05,0.0,0.00012,-1e-05,-1e-05,1,20.0
1493,0.0,-1e-05,1e-05,1e-05,0.0,0.00012,-1e-05,-1e-05,1,20.0
1494,0.0,-1e-05,1e-05,1e-05,0.0,0.00012,-1e-05,-1e-05,1,20.0
1495,0.0,-1e-05,1e-05,1e-05,0.0,0.00012,-1e-05,-1e-05,1,20.0
1496,0.0,-1e-05,1e-05,1e-05,0.0,0.00012,-1e-05,-1e-05,1,20.0
1497,0.0,-1e-05,1e-05,1e-05,0.0,0.00012,-1e-05,-1e-05,1,20.0
1498,0.0,-1e-05,1e-05,1e-05,0.0,0.00012,-1e-05,-1e-05,1,20.0
1499,0.0,-1e-05,1e-05,1e-05,0.0,0.00012,-1e-05,-1e-05,1,20.0
1500,0.0,-1e-05,1e-05,1e-05,0.0,0.00012,-1e-05,-1e-05,1,20.0
1501,0.0,-1e-05,1e-05,1e-05,0.0,0.00012,-1e-05,-1e-05,1,20.0
1502,-2e-05,-4e-05,-8e-05,0.00014,2e-05,-6e-05,-2e-05,-3e-05,1,20.0
1503,-2e-05,-4e-05,-8e-05,0.00014,2e-05,-6e-05,-2e-05,-3e-05,1,20.0
1504,0.0,-2e-05,-4e-05,2e-05,3e-05,0.00011,0.0,-1e-05,1,20.0
1505,0.0,-2e-05,-4e-05,2e-05,3e-05,0.00011,0.0,-1e-05,1,20.0
1506,0.0,-2e-05,-4e-05,2e-05,3e-05,0.00011,0.0,-1e-05,1,20.0
1507,0.0,-2e-05,-4e-05,2e-05,3e-05,0.00011,0.0,-1e-05,1,20.0
1508,0.0,-2e-05,-4e-05,2e-05,3e-05,0.00011,0.0,-1e-05,1,20.0
1509,0.0,-2e-05,-4e-05,2e-05,3e-05,0.00011,0.0,-1e-05,1,20.0
1510,0.0,-2e-05,-4e-05,2e-05,3e-05,0.00011,0.0,-1e-05,1,20.0
1511,0.0,-2e-05,-4e-05,2e-05,3e-05,0.00011,0.0,-1e-05,1,20.0
1512,0.0,-2e-05,-4e-05,2e-05,3e-05,0.00011,0.0,-1e-05,1,20.0
1513,0.0,-2e-05,-4e-05,2e-05,3e-05,0.00011,0.0,-1e-05,1,20.0
1514,0.0,-2e-05,-4e-05,2e-05,3e-05,0.00011,0.0,-1e-05,1,20.0
1515,0.0,-2e-05,-4e-05,2e-05,3e-05,0.00011,0.0,-1e-05,1,20.0
1516,0.0,-2e-05,-4e-05,2e-05,3e-05,0.00011,0.0,-1e-05,1,20.0
1517,0.0,0.0,4e-05,-2e-05,-5e-05,-5e-05,0.0,-2e-05,1,20.0
1518,0.0,0.0,4e-05,-2e-05,-5e-05,-5e-05,0.0,-2e-05,1,20.0
1519,-1e-05,-1e-05,-2e-05,0.0,6e-05,4e-05,-3e-05,-3e-05,1,20.0
1520,-1e-05,-1e-05,-2e-05,0.0,6e-05,4e-05,-3e-05,-3e-05,1,20.0
1521,-1e-05,-1e-05,-2e-05,0.0,6e-05,4e-05,-3e-05,-3e-05,1,20.0
1522,-1e-05,-1e-05,-2e-05,0.0,6e-05,4e-05,-3e-05,-3e-05,1,20.0
1523,-1e-05,-1e-05,-2e-05,0.0,6e-05,4e-05,-3e-05,-3e-05,1,20.0
1524,-1e-05,-1e-05,-2e-05,0.0,6e-05,4e-05,-3e-05,-3e-05,1,20.0
1525,-1e-05,-1e-05,-2e-05,0.0,6e-05,4e-05,-3e-05,-3e-05,1,20.0
1526,-1e-05,-1e-05,-2e-05,0.0,6e-05,4e-05,-3e-05,-3e-05,1,20.0
1527,-1e-05,-1e-05,-2e-05,0.0,6e-05,4e-05,-3e-05,-3e-05,1,20.0
1528,-1e-05,-1e-05,-2e-05,0.0,6e-05,4e-05,-3e-05,-3e-05,1,20.0
1529,-1e-05,-1e-05,-2e-05,0.0,6e-05,4e-05,-3e-05,-3e-05,1,20.0
1530,-1e-05,-1e-05,-2e-05,0.0,6e-05,4e-05,-3e-05,-3e-05,1,20.0
1531,-1e-05,-1e-05,-2e-05,0.0,6e-05,4e-05,-3e-05,-3e-05,1,20.0
1532,-1e-05,-1e-05,-2e-05,0.0,6e-05,4e-05,-3e-05,-3e-05,1,20.0
1533,-1e-05,-1e-05,-2e-05,0.0,6e-05,4e-05,-3e-05,-3e-05,1,20.0
1534,-1e-05,-1e-05,-2e-05,0.0,6e-05,4e-05,-3e-05,-3e-05,1,20.0
1535,-1e-05,-1e-05,-2e-05,0.0,6e-05,4e-05,-3e-05,-3e-05,1,20.0
1536,-1e-05,-1e-05,-2e-05,0.0,6e-05,4e-05,-3e-05,-3e-05,1,20.0
1539,-1e-05,-1e-05,-2e-05,0.0,6e-05,4e-05,-3e-05,-3e-05,1,20.0
1540,-1e-05,-1e-05,-2e-05,0.0,6e-05,4e-05,-3e-05,-3e-05,1,20.0
1541,-1e-05,-1e-05,-2e-05,0.0,6e-05,4e-05,-3e-05,-3e-05,1,20.0
1542,-1e-05,-1e-05,-2e-05,0.0,6e-05,4e-05,-3e-05,-3e-05,1,20.0
1543,-1e-05,-1e-05,-2e-05,0.0,6e-05,4e-05,-3e-05,-3e-05,1,20.0
1544,-1e-05,-1e-05,-2e-05,0.0,6e-05,4e-05,-3e-05,-3e-05,1,20.0
1545,-1e-05,-1e-05,-2e-05,0.0,6e-05,4e-05,-3e-05,-3e-05,1,20.0
1546,-1e-05,-1e-05,-2e-05,0.0,6e-05,4e-05,-3e-05,-3e-05,1,20.0
1547,-1e-05,1e-05,2e-05,3e-05,1e-05,-7e-05,-1e-05,0.0,1,20.0
1548,-1e-05,1e-05,2e-05,3e-05,1e-05,-7e-05,-1e-05,0.0,1,20.0
1549,-2e-05,-3e-05,-6e-05,0.0,-5e-05,-0.00013,-3e-05,0.0,1,20.0
1550,-2e-05,-3e-05,-6e-05,0.0,-5e-05,-0.00013,-3e-05,0.0,1,20.0
1551,-2e-05,-3e-05,-6e-05,0.0,-5e-05,-0.00013,-3e-05,0.0,1,20.0
1552,-2e-05,-3e-05,-6e-05,0.0,-5e-05,-0.00013,-3e-05,0.0,1,20.0
1553,-2e-05,-3e-05,-6e-05,0.0,-5e-05,-0.00013,-3e-05,0.0,1,20.0
1554,2e-05,0.0,2e-05,8e-05,-3e-05,5e-05,-2e-05,0.0,1,20.0
1555,2e-05,0.0,2e-05,8e-05,-3e-05,5e-05,-2e-05,0.0,1,20.0
1556,2e-05,0.0,2e-05,8e-05,-3e-05,5e-05,-2e-05,0.0,1,20.0
1557,2e-05,0.0,2e-05,8e-05,-3e-05,5e-05,-2e-05,0.0,1,20.0
1558,2e-05,0.0,2e-05,8e-05,-3e-05,5e-05,-2e-05,0.0,1,20.0
1559,2e-05,0.0,2e-05,8e-05,-3e-05,5e-05,-2e-05,0.0,1,20.0
1560,2e-05,0.0,2e-05,8e-05,-3e-05,5e-05,-2e-05,0.0,1,20.0
1561,-2e-05,-3e-05,-3e-05,-5e-05,-6e-05,-3e-05,0.0,-2e-05,1,20.0
1562,-2e-05,-3e-05,-3e-05,-5e-05,-6e-05,-3e-05,0.0,-2e-05,1,20.0
1563,-2e-05,-3e-05,-3e-05,-5e-05,-6e-05,-3e-05,0.0,-2e-05,1,20.0
1564,-2e-05,-3e-05,-3e-05,-5e-05,-6e-05,-3e-05,0.0,-2e-05,1,20.0
1565,-2e-05,-3e-05,-3e-05,-5e-05,-6e-05,-3e-05,0.0,-2e-05,1,20.0
1566,-2e-05,-3e-05,-3e-05,-5e-05,-6e-05,-3e-05,0.0,-2e-05,1,20.0
1567,-2e-05,-3e-05,-3e-05,-5e-05,-6e-05,-3e-05,0.0,-2e-05,1,20.0
1568,-2e-05,-3e-05,-3e-05,-5e-05,-6e-05,-3e-05,0.0,-2e-05,1,20.0
1569,-2e-05,-3e-05,-3e-05,-5e-05,-6e-05,-3e-05,0.0,-2e-05,1,20.0
1570,-2e-05,-3e-05,-3e-05,-5e-05,-6e-05,-3e-05,0.0,-2e-05,1,20.0
1571,-2e-05,-3e-05,-3e-05,-5e-05,-6e-05,-3e-05,0.0,-2e-05,1,20.0
1572,-2e-05,-3e-05,-3e-05,-5e-05,-6e-05,-3e-05,0.0,-2e-05,1,20.0
1573,-2e-05,-3e-05,-3e-05,-5e-05,-6e-05,-3e-05,0.0,-2e-05,1,20.0
1574,-2e-05,-3e-05,-3e-05,-5e-05,-6e-05,-3e-05,0.0,-2e-05,1,20.0
1575,-2e-05,-3e-05,-3e-05,-5e-05,-6e-05,-3e-05,0.0,-2e-05,1,20.0
1576,-2e-05,-3e-05,-3e-05,-5e-05,-6e-05,-3e-05,0.0,-2e-05,1,20.0
1577,-2e-05,-3e-05,-3e-05,-5e-05,-6e-05,-3e-05,0.0,-2e-05,1,20.0
1578,-2e-05,-2e-05,-3e-05,-0.00019,-5e-05,-0.0001,-6e-05,-1e-05,1,20.0
1579,-1e-05,1e-05,0.0,0.0,-8e-05,9e-05,1e-05,-1e-05,1,20.0
1580,-1e-05,1e-05,0.0,0.0,-8e-05,9e-05,1e-05,-1e-05,1,20.0
1581,-1e-05,1e-05,0.0,0.0,-8e-05,9e-05,1e-05,-1e-05,1,20.0
1582,-1e-05,1e-05,0.0,0.0,-8e-05,9e-05,1e-05,-1e-05,1,20.0
1583,-1e-05,1e-05,0.0,0.0,-8e-05,9e-05,1e-05,-1e-05,1,20.0
1584,-1e-05,1e-05,0.0,0.0,-8e-05,9e-05,1e-05,-1e-05,1,20.0
1585,-1e-05,1e-05,0.0,0.0,-8e-05,9e-05,1e-05,-1e-05,1,20.0
1586,-1e-05,1e-05,0.0,0.0,-8e-05,9e-05,1e-05,-1e-05,1,20.0
1588,-1e-05,1e-05,0.0,0.0,-8e-05,9e-05,1e-05,-1e-05,1,20.0
1589,-1e-05,1e-05,0.0,0.0,-8e-05,9e-05,1e-05,-1e-05,1,20.0
1590,-1e-05,1e-05,0.0,0.0,-8e-05,9e-05,1e-05,-1e-05,1,20.0
1591,-1e-05,1e-05,0.0,0.0,-8e-05,9e-05,1e-05,-1e-05,1,20.0
1592,-1e-05,1e-05,0.0,0.0,-8e-05,9e-05,1e-05,-1e-05,1,20.0
1593,-1e-05,1e-05,0.0,0.0,-8e-05,9e-05,1e-05,-1e-05,1,20.0
1594,-1e-05,1e-05,0.0,0.0,-8e-05,9e-05,1e-05,-1e-05,1,20.0
1595,-1e-05,1e-05,0.0,0.0,-8e-05,9e-05,1e-05,-1e-05,1,20.0
1596,-1e-05,1e-05,0.0,0.0,-8e-05,9e-05,1e-05,-1e-05,1,20.0
1597,-1e-05,1e-05,0.0,0.0,-8e-05,9e-05,1e-05,-1e-05,1,20.0
1598,-1e-05,1e-05,0.0,0.0,-8e-05,9e-05,1e-05,-1e-05,1,20.0
1599,-1e-05,1e-05,0.0,0.0,-8e-05,9e-05,1e-05,-1e-05,1,20.0
1600,0.0,0.0,5e-05,-2e-05,2e-05,-5e-05,-4e-05,0.0,1,20.0
1601,-1e-05,-2e-05,-6e-05,-0.00011,-9e-05,0.0,2e-05,0.0,1,20.0
1602,-1e-05,-2e-05,-6e-05,-0.00011,-9e-05,0.0,2e-05,0.0,1,20.0
1603,-1e-05,-2e-05,-6e-05,-0.00011,-9e-05,0.0,2e-05,0.0,1,20.0
1604,-1e-05,-2e-05,-6e-05,-0.00011,-9e-05,0.0,2e-05,0.0,1,20.0
1605,-1e-05,-2e-05,-6e-05,-0.00011,-9e-05,0.0,2e-05,0.0,1,20.0
1606,-1e-05,-2e-05,-6e-05,-0.00011,-9e-05,0.0,2e-05,0.0,1,20.0
1607,-1e-05,-2e-05,-6e-05,-0.00011,-9e-05,0.0,2e-05,0.0,1,20.0
1608,-1e-05,-2e-05,-6e-05,-0.00011,-9e-05,0.0,2e-05,0.0,1,20.0
1609,-1e-05,-2e-05,-6e-05,-0.00011,-9e-05,0.0,2e-05,0.0,1,20.0
1610,-1e-05,-2e-05,-6e-05,-0.00011,-9e-05,0.0,2e-05,0.0,1,20.0
1611,-1e-05,-2e-05,-6e-05,-0.00011,-9e-05,0.0,2e-05,0.0,1,20.0
1613,-2e-05,-2e-05,0.0,4e-05,1e-05,-1e-05,0.0,1e-05,1,20.0
1614,-1e-05,0.0,-3e-05,-2e-05,3e-05,5e-05,2e-05,-2e-05,1,20.0
1615,-1e-05,0.0,-3e-05,-2e-05,3e-05,5e-05,2e-05,-2e-05,1,20.0
1616,-1e-05,0.0,-3e-05,-2e-05,3e-05,5e-05,2e-05,-2e-05,1,20.0
1617,-1e-05,0.0,-3e-05,-2e-05,3e-05,5e-05,2e-05,-2e-05,1,20.0
1618,-1e-05,0.0,-3e-05,-2e-05,3e-05,5e-05,2e-05,-2e-05,1,20.0
1619,-1e-05,0.0,-3e-05,-2e-05,3e-05,5e-05,2e-05,-2e-05,1,20.0
1620,-1e-05,0.0,-3e-05,-2e-05,3e-05,5e-05,2e-05,-2e-05,1,20.0
1621,-1e-05,0.0,-3e-05,-2e-05,3e-05,5e-05,2e-05,-2e-05,1,20.0
1622,-1e-05,0.0,1e-05,3e-05,5e-05,-3e-05,-4e-05,-1e-05,1,20.0
1623,-1e-05,0.0,1e-05,3e-05,5e-05,-3e-05,-4e-05,-1e-05,1,20.0
1624,-1e-05,0.0,1e-05,3e-05,5e-05,-3e-05,-4e-05,-1e-05,1,20.0
1625,-1e-05,0.0,1e-05,3e-05,5e-05,-3e-05,-4e-05,-1e-05,1,20.0
1626,-1e-05,0.0,1e-05,3e-05,5e-05,-3e-05,-4e-05,-1e-05,1,20.0
1627,-1e-05,0.0,1e-05,3e-05,5e-05,-3e-05,-4e-05,-1e-05,1,20.0
1628,-1e-05,0.0,1e-05,3e-05,5e-05,-3e-05,-4e-05,-1e-05,1,20.0
1629,-1e-05,0.0,1e-05,3e-05,5e-05,-3e-05,-4e-05,-1e-05,1,20.0
1630,-1e-05,0.0,1e-05,3e-05,5e-05,-3e-05,-4e-05,-1e-05,1,20.0
1631,-1e-05,0.0,1e-05,3e-05,5e-05,-3e-05,-4e-05,-1e-05,1,20.0
1632,-1e-05,0.0,1e-05,3e-05,5e-05,-3e-05,-4e-05,-1e-05,1,20.0
1633,-1e-05,0.0,1e-05,3e-05,5e-05,-3e-05,-4e-05,-1e-05,1,20.0
1634,-1e-05,0.0,1e-05,3e-05,5e-05,-3e-05,-4e-05,-1e-05,1,20.0
1635,-1e-05,0.0,1e-05,3e-05,5e-05,-3e-05,-4e-05,-1e-05,1,20.0
1636,-1e-05,0.0,1e-05,3e-05,5e-05,-3e-05,-4e-05,-1e-05,1,20.0
1639,-1e-05,3e-05,5e-05,4e-05,-1e-05,8e-05,-2e-05,-1e-05,1,20.0
1640,-1e-05,3e-05,5e-05,4e-05,-1e-05,8e-05,-2e-05,-1e-05,1,20.0
1641,-1e-05,3e-05,5e-05,4e-05,-1e-05,8e-05,-2e-05,-1e-05,1,20.0
1642,-1e-05,3e-05,5e-05,4e-05,-1e-05,8e-05,-2e-05,-1e-05,1,20.0
1643,-1e-05,3e-05,5e-05,4e-05,-1e-05,8e-05,-2e-05,-1e-05,1,20.0
1644,-1e-05,3e-05,5e-05,4e-05,-1e-05,8e-05,-2e-05,-1e-05,1,20.0
1645,-1e-05,3e-05,5e-05,4e-05,-1e-05,8e-05,-2e-05,-1e-05,1,20.0
1646,-1e-05,3e-05,5e-05,4e-05,-1e-05,8e-05,-2e-05,-1e-05,1,20.0
1647,-1e-05,3e-05,5e-05,4e-05,-1e-05,8e-05,-2e-05,-1e-05,1,20.0
1648,-1e-05,3e-05,5e-05,4e-05,-1e-05,8e-05,-2e-05,-1e-05,1,20.0
1649,-1e-05,3e-05,5e-05,4e-05,-1e-05,8e-05,-2e-05,-1e-05,1,20.0
1650,-1e-05,3e-05,5e-05,4e-05,-1e-05,8e-05,-2e-05,-1e-05,1,20.0
1651,-1e-05,3e-05,5e-05,4e-05,-1e-05,8e-05,-2e-05,-1e-05,1,20.0
1652,-1e-05,3e-05,5e-05,4e-05,-1e-05,8e-05,-2e-05,-1e-05,1,20.0
1653,-1e-05,3e-05,5e-05,4e-05,-1e-05,8e-05,-2e-05,-1e-05,1,20.0
1654,-1e-05,3e-05,5e-05,4e-05,-1e-05,8e-05,-2e-05,-1e-05,1,20.0
1655,-1e-05,3e-05,5e-05,4e-05,-1e-05,8e-05,-2e-05,-1e-05,1,20.0
1656,-1e-05,3e-05,5e-05,4e-05,-1e-05,8e-05,-2e-05,-1e-05,1,20.0
1657,-1e-05,3e-05,5e-05,4e-05,-1e-05,8e-05,-2e-05,-1e-05,1,20.0
1658,-1e-05,3e-05,5e-05,4e-05,-1e-05,8e-05,-2e-05,-1e-05,1,20.0
1659,-1e-05,3e-05,5e-05,4e-05,-1e-05,8e-05,-2e-05,-1e-05,1,20.0
1660,-1e-05,3e-05,5e-05,4e-05,-1e-05,8e-05,-2e-05,-1e-05,1,20.0
1661,-1e-05,-2e-05,-1e-05,0.0,-2e-05,0.00019,-2e-05,-3e-05,1,20.0
1662,-1e-05,-2e-05,-1e-05,0.0,-2e-05,0.00019,-2e-05,-3e-05,1,20.0
1663,-1e-05,-2e-05,-1e-05,0.0,-2e-05,0.00019,-2e-05,-3e-05,1,20.0
1664,-1e-05,-2e-05,-1e-05,0.0,-2e-05,0.00019,-2e-05,-3e-05,1,20.0
1665,-1e-05,-2e-05,-1e-05,0.0,-2e-05,0.00019,-2e-05,-3e-05,1,20.0
1666,-1e-05,-2e-05,-1e-05,0.0,-2e-05,0.00019,-2e-05,-3e-05,1,20.0
1667,-1e-05,-2e-05,-1e-05,0.0,-2e-05,0.00019,-2e-05,-3e-05,1,20.0
1668,-1e-05,-2e-05,-1e-05,0.0,-2e-05,0.00019,-2e-05,-3e-05,1,20.0
1669,-1e-05,-2e-05,-1e-05,0.0,-2e-05,0.00019,-2e-05,-3e-05,1,20.0
1670,-1e-05,-2e-05,-1e-05,0.0,-2e-05,0.00019,-2e-05,-3e-05,1,20.0
1671,-1e-05,-2e-05,-1e-05,0.0,-2e-05,0.00019,-2e-05,-3e-05,1,20.0
1672,-1e-05,-2e-05,-1e-05,0.0,-2e-05,0.00019,-2e-05,-3e-05,1,20.0
1673,2e-05,3e-05,4e-05,5e-05,0.0,5e-05,-1e-05,-1e-05,1,20.0
1674,0.0,-2e-05,-9e-05,-7e-05,-4e-05,-9e-05,-2e-05,-2e-05,1,20.0
1675,0.0,-2e-05,-9e-05,-7e-05,-4e-05,-9e-05,-2e-05,-2e-05,1,20.0
1676,0.0,-2e-05,-9e-05,-7e-05,-4e-05,-9e-05,-2e-05,-2e-05,1,20.0
1677,0.0,-2e-05,-9e-05,-7e-05,-4e-05,-9e-05,-2e-05,-2e-05,1,20.0
1678,0.0,-2e-05,-9e-05,-7e-05,-4e-05,-9e-05,-2e-05,-2e-05,1,20.0
1679,0.0,-2e-05,-9e-05,-7e-05,-4e-05,-9e-05,-2e-05,-2e-05,1,20.0
1680,0.0,-2e-05,-9e-05,-7e-05,-4e-05,-9e-05,-2e-05,-2e-05,1,20.0
1681,0.0,-2e-05,-9e-05,-7e-05,-4e-05,-9e-05,-2e-05,-2e-05,1,20.0
1682,0.0,2e-05,5e-05,4e-05,5e-05,0.00011,-1e-05,-1e-05,1,20.0
1683,0.0,-3e-05,-6e-05,-3e-05,-6e-05,-9e-05,1e-05,0.0,1,20.0
1684,0.0,-3e-05,-6e-05,-3e-05,-6e-05,-9e-05,1e-05,0.0,1,20.0
1685,0.0,-3e-05,-6e-05,-3e-05,-6e-05,-9e-05,1e-05,0.0,1,20.0
1686,0.0,-3e-05,-6e-05,-3e-05,-6e-05,-9e-05,1e-05,0.0,1,20.0
1688,0.0,-3e-05,-6e-05,-3e-05,-6e-05,-9e-05,1e-05,0.0,1,20.0
1689,0.0,-3e-05,-6e-05,-3e-05,-6e-05,-9e-05,1e-05,0.0,1,20.0
1690,0.0,-3e-05,-6e-05,-3e-05,-6e-05,-9e-05,1e-05,0.0,1,20.0
1691,0.0,-3e-05,-6e-05,-3e-05,-6e-05,-9e-05,1e-05,0.0,1,20.0
1692,0.0,-3e-05,-6e-05,-3e-05,-6e-05,-9e-05,1e-05,0.0,1,20.0
1693,0.0,-3e-05,-6e-05,-3e-05,-6e-05,-9e-05,1e-05,0.0,1,20.0
1694,0.0,-3e-05,-6e-05,-3e-05,-6e-05,-9e-05,1e-05,0.0,1,20.0
1695,0.0,-3e-05,-6e-05,-3e-05,-6e-05,-9e-05,1e-05,0.0,1,20.0
1696,0.0,-3e-05,-6e-05,-3e-05,-6e-05,-9e-05,1e-05,0.0,1,20.0
1697,0.0,-1e-05,2e-05,6e-05,0.0,0.00016,3e-05,0.0,1,20.0
1698,0.0,-1e-05,2e-05,6e-05,0.0,0.00016,3e-05,0.0,1,20.0
1699,-3e-05,-3e-05,-0.0001,-0.00011,-3e-05,-8e-05,-2e-05,-2e-05,1,20.0
1700,-3e-05,-3e-05,-0.0001,-0.00011,-3e-05,-8e-05,-2e-05,-2e-05,1,20.0
1701,-3e-05,-3e-05,-0.0001,-0.00011,-3e-05,-8e-05,-2e-05,-2e-05,1,20.0
1702,-3e-05,-3e-05,-0.0001,-0.00011,-3e-05,-8e-05,-2e-05,-2e-05,1,20.0
1703,-3e-05,-3e-05,-0.0001,-0.00011,-3e-05,-8e-05,-2e-05,-2e-05,1,20.0
1704,-3e-05,-3e-05,-0.0001,-0.00011,-3e-05,-8e-05,-2e-05,-2e-05,1,20.0
1705,-3e-05,-3e-05,-0.0001,-0.00011,-3e-05,-8e-05,-2e-05,-2e-05,1,20.0
1706,-3e-05,-3e-05,-0.0001,-0.00011,-3e-05,-8e-05,-2e-05,-2e-05,1,20.0
1707,-3e-05,-3e-05,-0.0001,-0.00011,-3e-05,-8e-05,-2e-05,-2e-05,1,20.0
1708,-3e-05,-3e-05,-0.0001,-0.00011,-3e-05,-8e-05,-2e-05,-2e-05,1,20.0
1709,-3e-05,-3e-05,-0.0001,-0.00011,-3e-05,-8e-05,-2e-05,-2e-05,1,20.0
1710,-3e-05,-3e-05,-0.0001,-0.00011,-3e-05,-8e-05,-2e-05,-2e-05,1,20.0
1711,-3e-05,-3e-05,-0.0001,-0.00011,-3e-05,-8e-05,-2e-05,-2e-05,1,20.0
1712,-3e-05,-3e-05,-0.0001,-0.00011,-3e-05,-8e-05,-2e-05,-2e-05,1,20.0
1713,-3e-05,-3e-05,-0.0001,-0.00011,-3e-05,-8e-05,-2e-05,-2e-05,1,20.0
1714,-3e-05,-3e-05,-0.0001,-0.00011,-3e-05,-8e-05,-2e-05,-2e-05,1,20.0
1715,-3e-05,-3e-05,-0.0001,-0.00011,-3e-05,-8e-05,-2e-05,-2e-05,1,20.0
1716,-3e-05,-3e-05,-0.0001,-0.00011,-3e-05,-8e-05,-2e-05,-2e-05,1,20.0
1717,-3e-05,-3e-05,-0.0001,-0.00011,-3e-05,-8e-05,-2e-05,-2e-05,1,20.0
1718,-3e-05,-3e-05,-0.0001,-0.00011,-3e-05,-8e-05,-2e-05,-2e-05,1,20.0
1719,-3e-05,-3e-05,-0.0001,-0.00011,-3e-05,-8e-05,-2e-05,-2e-05,1,20.0
1720,-1e-05,-1e-05,-2e-05,-2e-05,-0.0001,-5e-05,-1e-05,0.0,1,20.0
1721,2e-05,2e-05,6e-05,8e-05,0.0,-0.00015,6e-05,3e-05,1,20.0
1722,2e-05,2e-05,6e-05,8e-05,0.0,-0.00015,6e-05,3e-05,1,20.0
1723,2e-05,2e-05,6e-05,8e-05,0.0,-0.00015,6e-05,3e-05,1,20.0
1724,2e-05,2e-05,6e-05,8e-05,0.0,-0.00015,6e-05,3e-05,1,20.0
1725,2e-05,2e-05,6e-05,8e-05,0.0,-0.00015,6e-05,3e-05,1,20.0
1726,2e-05,2e-05,6e-05,8e-05,0.0,-0.00015,6e-05,3e-05,1,20.0
1727,2e-05,2e-05,6e-05,8e-05,0.0,-0.00015,6e-05,3e-05,1,20.0
1728,2e-05,2e-05,6e-05,8e-05,0.0,-0.00015,6e-05,3e-05,1,20.0
1729,2e-05,2e-05,6e-05,8e-05,0.0,-0.00015,6e-05,3e-05,1,20.0
1730,2e-05,2e-05,6e-05,8e-05,0.0,-0.00015,6e-05,3e-05,1,20.0
1731,2e-05,2e-05,6e-05,8e-05,0.0,-0.00015,6e-05,3e-05,1,20.0
1732,2e-05,2e-05,6e-05,8e-05,0.0,-0.00015,6e-05,3e-05,1,20.0
1733,0.0,0.0,-1e-05,0.00011,5e-05,6e-05,-6e-05,-2e-05,1,20.0
1734,-1e-05,-2e-05,-3e-05,-4e-05,-4e-05,-7e-05,-4e-05,-2e-05,1,20.0
1735,-1e-05,-2e-05,-3e-05,-4e-05,-4e-05,-7e-05,-4e-05,-2e-05,1,20.0
1736,-1e-05,-2e-05,-3e-05,-4e-05,-4e-05,-7e-05,-4e-05,-2e-05,1,20.0
1738,-1e-05,-2e-05,-3e-05,-4e-05,-4e-05,-7e-05,-4e-05,-2e-05,1,20.0
1739,-1e-05,-2e-05,-3e-05,-4e-05,-4e-05,-7e-05,-4e-05,-2e-05,1,20.0
1740,-1e-05,-2e-05,-3e-05,-4e-05,-4e-05,-7e-05,-4e-05,-2e-05,1,20.0
1741,-1e-05,-2e-05,-3e-05,-4e-05,-4e-05,-7e-05,-4e-05,-2e-05,1,20.0
1742,-1e-05,-2e-05,-3e-05,-4e-05,-4e-05,-7e-05,-4e-05,-2e-05,1,20.0
1743,-1e-05,1e-05,0.0,-5e-05,-6e-05,-7e-05,-2e-05,-2e-05,1,20.0
1744,-2e-05,0.0,1e-05,-7e-05,-1e-05,6e-05,-1e-05,-3e-05,1,20.0
1745,-2e-05,0.0,1e-05,-7e-05,-1e-05,6e-05,-1e-05,-3e-05,1,20.0
1746,-2e-05,0.0,1e-05,-7e-05,-1e-05,6e-05,-1e-05,-3e-05,1,20.0
1747,-2e-05,0.0,1e-05,-7e-05,-1e-05,6e-05,-1e-05,-3e-05,1,20.0
1748,-2e-05,0.0,1e-05,-7e-05,-1e-05,6e-05,-1e-05,-3e-05,1,20.0
1749,-2e-05,0.0,1e-05,-7e-05,-1e-05,6e-05,-1e-05,-3e-05,1,20.0
1750,-2e-05,0.0,1e-05,-7e-05,-1e-05,6e-05,-1e-05,-3e-05,1,20.0
1751,-2e-05,0.0,1e-05,-7e-05,-1e-05,6e-05,-1e-05,-3e-05,1,20.0
1752,-2e-05,0.0,1e-05,-7e-05,-1e-05,6e-05,-1e-05,-3e-05,1,20.0
1753,-2e-05,0.0,1e-05,-7e-05,-1e-05,6e-05,-1e-05,-3e-05,1,20.0
1754,-2e-05,0.0,1e-05,-7e-05,-1e-05,6e-05,-1e-05,-3e-05,1,20.0
1755,-2e-05,0.0,1e-05,-7e-05,-1e-05,6e-05,-1e-05,-3e-05,1,20.0
1756,-2e-05,0.0,1e-05,-7e-05,-1e-05,6e-05,-1e-05,-3e-05,1,20.0
1757,-1e-05,-2e-05,-4e-05,-4e-05,4e-05,9e-05,0.0,1e-05,1,20.0
1758,-1e-05,-2e-05,-4e-05,-4e-05,4e-05,9e-05,0.0,1e-05,1,20.0
1759,-1e-05,-2e-05,-4e-05,-4e-05,4e-05,9e-05,0.0,1e-05,1,20.0
1760,-1e-05,-2e-05,-4e-05,-4e-05,4e-05,9e-05,0.0,1e-05,1,20.0
1761,-2e-05,-3e-05,-2e-05,-6e-05,3e-05,0.0,-2e-05,-3e-05,1,20.0
1762,-2e-05,-3e-05,-2e-05,-6e-05,3e-05,0.0,-2e-05,-3e-05,1,20.0
1763,-2e-05,-3e-05,-2e-05,-6e-05,3e-05,0.0,-2e-05,-3e-05,1,20.0
1764,-2e-05,-3e-05,-2e-05,-6e-05,3e-05,0.0,-2e-05,-3e-05,1,20.0
1765,-2e-05,-3e-05,-2e-05,-6e-05,3e-05,0.0,-2e-05,-3e-05,1,20.0
1766,-2e-05,-3e-05,-2e-05,-6e-05,3e-05,0.0,-2e-05,-3e-05,1,20.0
1767,-2e-05,-3e-05,-2e-05,-6e-05,3e-05,0.0,-2e-05,-3e-05,1,20.0
1768,-2e-05,-3e-05,-2e-05,-6e-05,3e-05,0.0,-2e-05,-3e-05,1,20.0
1769,-2e-05,-3e-05,-2e-05,-6e-05,3e-05,0.0,-2e-05,-3e-05,1,20.0
1770,-2e-05,-3e-05,-2e-05,-6e-05,3e-05,0.0,-2e-05,-3e-05,1,20.0
1771,-2e-05,-3e-05,-2e-05,-6e-05,3e-05,0.0,-2e-05,-3e-05,1,20.0
1772,-2e-05,-3e-05,-2e-05,-6e-05,3e-05,0.0,-2e-05,-3e-05,1,20.0
1773,-2e-05,-3e-05,-2e-05,-6e-05,3e-05,0.0,-2e-05,-3e-05,1,20.0
1774,-2e-05,-3e-05,-2e-05,-6e-05,3e-05,0.0,-2e-05,-3e-05,1,20.0
1775,-2e-05,-3e-05,-2e-05,-6e-05,3e-05,0.0,-2e-05,-3e-05,1,20.0
1776,-2e-05,-3e-05,-2e-05,-6e-05,3e-05,0.0,-2e-05,-3e-05,1,20.0
1777,-2e-05,-3e-05,-2e-05,-6e-05,3e-05,0.0,-2e-05,-3e-05,1,20.0
1778,-2e-05,-3e-05,-2e-05,-6e-05,3e-05,0.0,-2e-05,-3e-05,1,20.0
1779,-2e-05,-3e-05,-2e-05,-6e-05,3e-05,0.0,-2e-05,-3e-05,1,20.0
1780,0.0,-3e-05,-4e-05,-5e-05,3e-05,3e-05,-2e-05,-1e-05,1,20.0
1781,0.0,-3e-05,-4e-05,-5e-05,3e-05,3e-05,-2e-05,-1e-05,1,20.0
1782,-2e-05,-2e-05,-3e-05,0.0,3e-05,-9e-05,-1e-05,-2e-05,1,20.0
1783,-2e-05,-2e-05,-3e-05,0.0,3e-05,-9e-05,-1e-05,-2e-05,1,20.0
1784,-2e-05,-2e-05,-3e-05,0.0,3e-05,-9e-05,-1e-05,-2e-05,1,20.0
1785,-2e-05,-2e-05,-3e-05,0.0,3e-05,-9e-05,-1e-05,-2e-05,1,20.0
1786,-2e-05,-2e-05,-3e-05,0.0,3e-05,-9e-05,-1e-05,-2e-05,1,20.0
1788,-2e-05,-2e-05,-3e-05,0.0,3e-05,-9e-05,-1e-05,-2e-05,1,20.0
1789,-2e-05,-2e-05,-3e-05,0.0,3e-05,-9e-05,-1e-05,-2e-05,1,20.0
1790,-2e-05,-2e-05,-3e-05,0.0,3e-05,-9e-05,-1e-05,-2e-05,1,20.0
1791,-2e-05,-2e-05,-3e-05,0.0,3e-05,-9e-05,-1e-05,-2e-05,1,20.0
1792,-2e-05,-2e-05,-3e-05,0.0,3e-05,-9e-05,-1e-05,-2e-05,1,20.0
1793,-2e-05,-2e-05,-3e-05,0.0,3e-05,-9e-05,-1e-05,-2e-05,1,20.0
1794,-1e-05,-1e-05,-5e-05,-0.0001,0.0001,7e-05,2e-05,0.0,1,20.0
1795,-1e-05,-1e-05,-5e-05,-0.0001,0.0001,7e-05,2e-05,0.0,1,20.0
1796,-1e-05,-1e-05,-5e-05,-0.0001,0.0001,7e-05,2e-05,0.0,1,20.0
1797,-1e-05,-1e-05,-5e-05,-0.0001,0.0001,7e-05,2e-05,0.0,1,20.0
1798,-1e-05,-1e-05,-5e-05,-0.0001,0.0001,7e-05,2e-05,0.0,1,20.0
1799,-1e-05,-1e-05,-5e-05,-0.0001,0.0001,7e-05,2e-05,0.0,1,20.0
1800,-1e-05,-1e-05,-5e-05,-0.0001,0.0001,7e-05,2e-05,0.0,1,20.0
1801,-1e-05,-1e-05,-5e-05,-0.0001,0.0001,7e-05,2e-05,0.0,1,20.0
1802,0.0,-3e-05,2e-05,8e-05,-5e-05,2e-05,0.0,-2e-05,1,20.0
1803,-1e-05,-1e-05,2e-05,3e-05,2e-05,-0.00011,-3e-05,0.0,1,20.0
1804,-1e-05,-1e-05,2e-05,3e-05,2e-05,-0.00011,-3e-05,0.0,1,20.0
1805,-1e-05,-1e-05,2e-05,3e-05,2e-05,-0.00011,-3e-05,0.0,1,20.0
1806,-1e-05,-1e-05,2e-05,3e-05,2e-05,-0.00011,-3e-05,0.0,1,20.0
1807,-1e-05,-1e-05,2e-05,3e-05,2e-05,-0.00011,-3e-05,0.0,1,20.0
1808,-1e-05,-1e-05,2e-05,3e-05,2e-05,-0.00011,-3e-05,0.0,1,20.0
1809,-1e-05,-1e-05,2e-05,3e-05,2e-05,-0.00011,-3e-05,0.0,1,20.0
1810,-1e-05,-1e-05,2e-05,3e-05,2e-05,-0.00011,-3e-05,0.0,1,20.0
1811,-1e-05,-1e-05,2e-05,3e-05,2e-05,-0.00011,-3e-05,0.0,1,20.0
1812,-1e-05,-1e-05,2e-05,3e-05,2e-05,-0.00011,-3e-05,0.0,1,20.0
1813,-1e-05,-1e-05,2e-05,3e-05,2e-05,-0.00011,-3e-05,0.0,1,20.0
1814,-1e-05,-1e-05,2e-05,3e-05,2e-05,-0.00011,-3e-05,0.0,1,20.0
1815,-1e-05,-1e-05,2e-05,3e-05,2e-05,-0.00011,-3e-05,0.0,1,20.0
1816,-1e-05,-1e-05,2e-05,3e-05,2e-05,-0.00011,-3e-05,0.0,1,20.0
1817,-2e-05,-1e-05,4e-05,-6e-05,-0.00014,-0.00036,-4e-05,-1e-05,1,20.0
1818,-2e-05,-1e-05,4e-05,-6e-05,-0.00014,-0.00036,-4e-05,-1e-05,1,20.0
1819,-2e-05,-1e-05,4e-05,-6e-05,-0.00014,-0.00036,-4e-05,-1e-05,1,20.0
1820,-2e-05,-1e-05,4e-05,-6e-05,-0.00014,-0.00036,-4e-05,-1e-05,1,20.0
1821,-2e-05,-1e-05,4e-05,-6e-05,-0.00014,-0.00036,-4e-05,-1e-05,1,20.0
1822,-2e-05,-1e-05,4e-05,-6e-05,-0.00014,-0.00036,-4e-05,-1e-05,1,20.0
1823,-2e-05,-1e-05,4e-05,-6e-05,-0.00014,-0.00036,-4e-05,-1e-05,1,20.0
1824,-2e-05,-1e-05,4e-05,-6e-05,-0.00014,-0.00036,-4e-05,-1e-05,1,20.0
1825,0.0,3e-05,8e-05,0.00025,6e-05,0.00019,2e-05,1e-05,1,20.0
1826,0.0,3e-05,8e-05,0.00025,6e-05,0.00019,2e-05,1e-05,1,20.0
1827,0.0,3e-05,8e-05,0.00025,6e-05,0.00019,2e-05,1e-05,1,20.0
1828,0.0,3e-05,8e-05,0.00025,6e-05,0.00019,2e-05,1e-05,1,20.0
1829,0.0,3e-05,8e-05,0.00025,6e-05,0.00019,2e-05,1e-05,1,20.0
1830,0.0,3e-05,8e-05,0.00025,6e-05,0.00019,2e-05,1e-05,1,20.0
1831,0.0,3e-05,8e-05,0.00025,6e-05,0.00019,2e-05,1e-05,1,20.0
1832,0.0,3e-05,8e-05,0.00025,6e-05,0.00019,2e-05,1e-05,1,20.0
1833,0.0,3e-05,8e-05,0.00025,6e-05,0.00019,2e-05,1e-05,1,20.0
1834,0.0,3e-05,8e-05,0.00025,6e-05,0.00019,2e-05,1e-05,1,20.0
1835,0.0,3e-05,8e-05,0.00025,6e-05,0.00019,2e-05,1e-05,1,20.0
1836,0.0,3e-05,8e-05,0.00025,6e-05,0.00019,2e-05,1e-05,1,20.0
1838,0.0,3e-05,8e-05,0.00025,6e-05,0.00019,2e-05,1e-05,1,20.0
1839,0.0,3e-05,8e-05,0.00025,6e-05,0.00019,2e-05,1e-05,1,20.0
1840,-2e-05,-3e-05,-4e-05,-9e-05,0.0,0.00015,1e-05,-2e-05,1,20.0
1841,-1e-05,-1e-05,-1e-05,-7e-05,-2e-05,0.0001,0.0,0.0,1,20.0
1843,-1e-05,-1e-05,-1e-05,-7e-05,-2e-05,0.0001,0.0,0.0,1,20.0
1844,-1e-05,-1e-05,-1e-05,-7e-05,-2e-05,0.0001,0.0,0.0,1,20.0
1845,-1e-05,-1e-05,-1e-05,-7e-05,-2e-05,0.0001,0.0,0.0,1,20.0
1846,-1e-05,-1e-05,-1e-05,-7e-05,-2e-05,0.0001,0.0,0.0,1,20.0
1847,-1e-05,-1e-05,-1e-05,-7e-05,-2e-05,0.0001,0.0,0.0,1,20.0
1848,-1e-05,-1e-05,-1e-05,-7e-05,-2e-05,0.0001,0.0,0.0,1,20.0
1849,-1e-05,-1e-05,-1e-05,-7e-05,-2e-05,0.0001,0.0,0.0,1,20.0
1850,-1e-05,-1e-05,-1e-05,-7e-05,-2e-05,0.0001,0.0,0.0,1,20.0
1851,-1e-05,-1e-05,-1e-05,-7e-05,-2e-05,0.0001,0.0,0.0,1,20.0
1852,-1e-05,-1e-05,-1e-05,-7e-05,-2e-05,0.0001,0.0,0.0,1,20.0
1853,-1e-05,-1e-05,-1e-05,-7e-05,-2e-05,0.0001,0.0,0.0,1,20.0
1854,-2e-05,-1e-05,1e-05,8e-05,1e-05,-1e-05,-1e-05,0.0,1,20.0
1855,-2e-05,-1e-05,1e-05,8e-05,1e-05,-1e-05,-1e-05,0.0,1,20.0
1856,-2e-05,-1e-05,1e-05,8e-05,1e-05,-1e-05,-1e-05,0.0,1,20.0
1857,-2e-05,-1e-05,1e-05,8e-05,1e-05,-1e-05,-1e-05,0.0,1,20.0
1858,-2e-05,-1e-05,1e-05,8e-05,1e-05,-1e-05,-1e-05,0.0,1,20.0
1859,-2e-05,-1e-05,1e-05,8e-05,1e-05,-1e-05,-1e-05,0.0,1,20.0
1860,-2e-05,-1e-05,1e-05,8e-05,1e-05,-1e-05,-1e-05,0.0,1,20.0
1861,-2e-05,-1e-05,1e-05,8e-05,1e-05,-1e-05,-1e-05,0.0,1,20.0
1862,-1e-05,-2e-05,-3e-05,-0.00013,5e-05,-1e-05,-2e-05,-2e-05,1,20.0
1863,-1e-05,-2e-05,-3e-05,-0.00013,5e-05,-1e-05,-2e-05,-2e-05,1,20.0
1864,-1e-05,-2e-05,-3e-05,-0.00013,5e-05,-1e-05,-2e-05,-2e-05,1,20.0
1865,-1e-05,-2e-05,-3e-05,-0.00013,5e-05,-1e-05,-2e-05,-2e-05,1,20.0
1866,-1e-05,-2e-05,-3e-05,-0.00013,5e-05,-1e-05,-2e-05,-2e-05,1,20.0
1867,-1e-05,-2e-05,-3e-05,-0.00013,5e-05,-1e-05,-2e-05,-2e-05,1,20.0
1868,-1e-05,-2e-05,-3e-05,-0.00013,5e-05,-1e-05,-2e-05,-2e-05,1,20.0
1869,-1e-05,-2e-05,-3e-05,-0.00013,5e-05,-1e-05,-2e-05,-2e-05,1,20.0
1870,-1e-05,-2e-05,-3e-05,-0.00013,5e-05,-1e-05,-2e-05,-2e-05,1,20.0
1871,-1e-05,-2e-05,-3e-05,-0.00013,5e-05,-1e-05,-2e-05,-2e-05,1,20.0
1872,-1e-05,-2e-05,-3e-05,-0.00013,5e-05,-1e-05,-2e-05,-2e-05,1,20.0
1873,-1e-05,-2e-05,-3e-05,-0.00013,5e-05,-1e-05,-2e-05,-2e-05,1,20.0
1874,-1e-05,-2e-05,-3e-05,-0.00013,5e-05,-1e-05,-2e-05,-2e-05,1,20.0
1875,-1e-05,-2e-05,-3e-05,-0.00013,5e-05,-1e-05,-2e-05,-2e-05,1,20.0
1876,-1e-05,-2e-05,-3e-05,-0.00013,5e-05,-1e-05,-2e-05,-2e-05,1,20.0
1877,-1e-05,-2e-05,0.0,1e-05,1e-05,3e-05,0.0,-1e-05,1,20.0
1878,0.0,2e-05,-1e-05,2e-05,-0.00011,0.0,1e-05,0.0,1,20.0
1879,-1e-05,-2e-05,-2e-05,6e-05,3e-05,-5e-05,-3e-05,-1e-05,1,20.0
1880,-1e-05,-2e-05,-2e-05,6e-05,3e-05,-5e-05,-3e-05,-1e-05,1,20.0
1881,-1e-05,-2e-05,-2e-05,6e-05,3e-05,-5e-05,-3e-05,-1e-05,1,20.0
1883,-1e-05,-2e-05,-2e-05,6e-05,3e-05,-5e-05,-3e-05,-1e-05,1,20.0
1884,-1e-05,-2e-05,-2e-05,6e-05,3e-05,-5e-05,-3e-05,-1e-05,1,20.0
1885,-1e-05,-2e-05,-2e-05,6e-05,3e-05,-5e-05,-3e-05,-1e-05,1,20.0
1886,-1e-05,-2e-05,-2e-05,6e-05,3e-05,-5e-05,-3e-05,-1e-05,1,20.0
1888,-1e-05,-2e-05,-2e-05,6e-05,3e-05,-5e-05,-3e-05,-1e-05,1,20.0
1889,-1e-05,-2e-05,-2e-05,6e-05,3e-05,-5e-05,-3e-05,-1e-05,1,20.0
1890,-1e-05,-2e-05,-2e-05,6e-05,3e-05,-5e-05,-3e-05,-1e-05,1,20.0
1891,-1e-05,-2e-05,-2e-05,6e-05,3e-05,-5e-05,-3e-05,-1e-05,1,20.0
1893,-1e-05,-2e-05,-2e-05,6e-05,3e-05,-5e-05,-3e-05,-1e-05,1,20.0
1894,-1e-05,-2e-05,-2e-05,6e-05,3e-05,-5e-05,-3e-05,-1e-05,1,20.0
1895,-1e-05,-2e-05,-2e-05,6e-05,3e-05,-5e-05,-3e-05,-1e-05,1,20.0
1896,-1e-05,-2e-05,-2e-05,6e-05,3e-05,-5e-05,-3e-05,-1e-05,1,20.0
1897,-1e-05,-2e-05,-2e-05,6e-05,3e-05,-5e-05,-3e-05,-1e-05,1,20.0
1898,-1e-05,-2e-05,-2e-05,6e-05,3e-05,-5e-05,-3e-05,-1e-05,1,20.0
1899,-1e-05,-2e-05,-2e-05,6e-05,3e-05,-5e-05,-3e-05,-1e-05,1,20.0
1900,-1e-05,-2e-05,-1e-05,-5e-05,-7e-05,5e-05,-4e-05,-3e-05,1,20.0
1901,-1e-05,1e-05,0.0,-1e-05,-8e-05,9e-05,-1e-05,-2e-05,1,20.0
1902,-1e-05,1e-05,0.0,-1e-05,-8e-05,9e-05,-1e-05,-2e-05,1,20.0
1903,-1e-05,1e-05,0.0,-1e-05,-8e-05,9e-05,-1e-05,-2e-05,1,20.0
1904,-1e-05,1e-05,0.0,-1e-05,-8e-05,9e-05,-1e-05,-2e-05,1,20.0
1905,-1e-05,1e-05,0.0,-1e-05,-8e-05,9e-05,-1e-05,-2e-05,1,20.0
1906,-1e-05,1e-05,0.0,-1e-05,-8e-05,9e-05,-1e-05,-2e-05,1,20.0
1907,-1e-05,1e-05,0.0,-1e-05,-8e-05,9e-05,-1e-05,-2e-05,1,20.0
1908,-1e-05,1e-05,0.0,-1e-05,-8e-05,9e-05,-1e-05,-2e-05,1,20.0
1909,-1e-05,1e-05,0.0,-1e-05,-8e-05,9e-05,-1e-05,-2e-05,1,20.0
1910,-1e-05,1e-05,0.0,-1e-05,-8e-05,9e-05,-1e-05,-2e-05,1,20.0
1911,-1e-05,1e-05,0.0,-1e-05,-8e-05,9e-05,-1e-05,-2e-05,1,20.0
1912,-1e-05,1e-05,0.0,-1e-05,-8e-05,9e-05,-1e-05,-2e-05,1,20.0
1913,-1e-05,1e-05,0.0,-1e-05,-8e-05,9e-05,-1e-05,-2e-05,1,20.0
1914,-1e-05,-2e-05,5e-05,6e-05,0.0,1e-05,1e-05,1e-05,1,20.0
1915,-1e-05,-2e-05,5e-05,6e-05,0.0,1e-05,1e-05,1e-05,1,20.0
1916,-1e-05,-2e-05,5e-05,6e-05,0.0,1e-05,1e-05,1e-05,1,20.0
1917,-1e-05,-2e-05,5e-05,6e-05,0.0,1e-05,1e-05,1e-05,1,20.0
1918,-1e-05,-2e-05,5e-05,6e-05,0.0,1e-05,1e-05,1e-05,1,20.0
1919,-1e-05,-2e-05,5e-05,6e-05,0.0,1e-05,1e-05,1e-05,1,20.0
1920,-1e-05,-2e-05,5e-05,6e-05,0.0,1e-05,1e-05,1e-05,1,20.0
1921,-1e-05,-2e-05,5e-05,6e-05,0.0,1e-05,1e-05,1e-05,1,20.0
1922,0.0,0.0,3e-05,-5e-05,4e-05,5e-05,-1e-05,1e-05,1,20.0
1923,-1e-05,0.0,1e-05,7e-05,4e-05,-0.0002,-5e-05,-2e-05,1,20.0
1924,-1e-05,0.0,1e-05,7e-05,4e-05,-0.0002,-5e-05,-2e-05,1,20.0
1925,-1e-05,0.0,1e-05,7e-05,4e-05,-0.0002,-5e-05,-2e-05,1,20.0
1926,-1e-05,0.0,1e-05,7e-05,4e-05,-0.0002,-5e-05,-2e-05,1,20.0
1927,-1e-05,0.0,1e-05,7e-05,4e-05,-0.0002,-5e-05,-2e-05,1,20.0
1928,-1e-05,0.0,1e-05,7e-05,4e-05,-0.0002,-5e-05,-2e-05,1,20.0
1929,-1e-05,0.0,1e-05,7e-05,4e-05,-0.0002,-5e-05,-2e-05,1,20.0
1930,-1e-05,0.0,1e-05,7e-05,4e-05,-0.0002,-5e-05,-2e-05,1,20.0
1931,-1e-05,0.0,1e-05,7e-05,4e-05,-0.0002,-5e-05,-2e-05,1,20.0
1932,-1e-05,0.0,1e-05,7e-05,4e-05,-0.0002,-5e-05,-2e-05,1,20.0
1933,-1e-05,0.0,1e-05,7e-05,4e-05,-0.0002,-5e-05,-2e-05,1,20.0
1934,-1e-05,0.0,1e-05,7e-05,4e-05,-0.0002,-5e-05,-2e-05,1,20.0
1935,-1e-05,0.0,1e-05,7e-05,4e-05,-0.0002,-5e-05,-2e-05,1,20.0
1936,-1e-05,0.0,1e-05,7e-05,4e-05,-0.0002,-5e-05,-2e-05,1,20.0
1939,1e-05,-4e-05,-3e-05,-3e-05,-3e-05,0.0,1e-05,0.0,1,20.0
1940,1e-05,-4e-05,-3e-05,-3e-05,-3e-05,0.0,1e-05,0.0,1,20.0
1941,1e-05,-4e-05,-3e-05,-3e-05,-3e-05,0.0,1e-05,0.0,1,20.0
1942,1e-05,-4e-05,-3e-05,-3e-05,-3e-05,0.0,1e-05,0.0,1,20.0
1943,1e-05,-4e-05,-3e-05,-3e-05,-3e-05,0.0,1e-05,0.0,1,20.0
1944,1e-05,-4e-05,-3e-05,-3e-05,-3e-05,0.0,1e-05,0.0,1,20.0
1945,1e-05,-4e-05,-3e-05,-3e-05,-3e-05,0.0,1e-05,0.0,1,20.0
1946,1e-05,-4e-05,-3e-05,-3e-05,-3e-05,0.0,1e-05,0.0,1,20.0
1947,1e-05,-4e-05,-3e-05,-3e-05,-3e-05,0.0,1e-05,0.0,1,20.0
1948,1e-05,-4e-05,-3e-05,-3e-05,-3e-05,0.0,1e-05,0.0,1,20.0
1949,1e-05,-4e-05,-3e-05,-3e-05,-3e-05,0.0,1e-05,0.0,1,20.0
1950,1e-05,-4e-05,-3e-05,-3e-05,-3e-05,0.0,1e-05,0.0,1,20.0
1951,1e-05,-4e-05,-3e-05,-3e-05,-3e-05,0.0,1e-05,0.0,1,20.0
1952,1e-05,-4e-05,-3e-05,-3e-05,-3e-05,0.0,1e-05,0.0,1,20.0
1953,1e-05,-4e-05,-3e-05,-3e-05,-3e-05,0.0,1e-05,0.0,1,20.0
1954,1e-05,-4e-05,-3e-05,-3e-05,-3e-05,0.0,1e-05,0.0,1,20.0
1955,1e-05,-4e-05,-3e-05,-3e-05,-3e-05,0.0,1e-05,0.0,1,20.0
1956,1e-05,-4e-05,-3e-05,-3e-05,-3e-05,0.0,1e-05,0.0,1,20.0
1958,1e-05,-4e-05,-3e-05,-3e-05,-3e-05,0.0,1e-05,0.0,1,20.0
1959,1e-05,-4e-05,-3e-05,-3e-05,-3e-05,0.0,1e-05,0.0,1,20.0
1960,1e-05,-4e-05,-3e-05,-3e-05,-3e-05,0.0,1e-05,0.0,1,20.0
1961,-2e-05,0.0,-2e-05,5e-05,3e-05,-4e-05,3e-05,-1e-05,1,20.0
1962,0.0,1e-05,1e-05,-5e-05,-0.00013,-7e-05,1e-05,1e-05,1,20.0
1963,0.0,1e-05,1e-05,-5e-05,-0.00013,-7e-05,1e-05,1e-05,1,20.0
1964,0.0,1e-05,1e-05,-5e-05,-0.00013,-7e-05,1e-05,1e-05,1,20.0
1965,0.0,1e-05,1e-05,-5e-05,-0.00013,-7e-05,1e-05,1e-05,1,20.0
1966,0.0,1e-05,1e-05,-5e-05,-0.00013,-7e-05,1e-05,1e-05,1,20.0
1967,0.0,1e-05,1e-05,-5e-05,-0.00013,-7e-05,1e-05,1e-05,1,20.0
1968,0.0,1e-05,1e-05,-5e-05,-0.00013,-7e-05,1e-05,1e-05,1,20.0
1969,0.0,1e-05,1e-05,-5e-05,-0.00013,-7e-05,1e-05,1e-05,1,20.0
1970,0.0,1e-05,1e-05,-5e-05,-0.00013,-7e-05,1e-05,1e-05,1,20.0
1971,0.0,1e-05,1e-05,-5e-05,-0.00013,-7e-05,1e-05,1e-05,1,20.0
1972,0.0,1e-05,1e-05,-5e-05,-0.00013,-7e-05,1e-05,1e-05,1,20.0
1973,-1e-05,-1e-05,-2e-05,-2e-05,9e-05,0.0,-3e-05,0.0,1,20.0
1975,-1e-05,-1e-05,-2e-05,-2e-05,9e-05,0.0,-3e-05,0.0,1,20.0
1976,-1e-05,-1e-05,-2e-05,-2e-05,9e-05,0.0,-3e-05,0.0,1,20.0
1977,-1e-05,-1e-05,-2e-05,-2e-05,9e-05,0.0,-3e-05,0.0,1,20.0
1978,-1e-05,-1e-05,-2e-05,-2e-05,9e-05,0.0,-3e-05,0.0,1,20.0
1979,-1e-05,-1e-05,-2e-05,-2e-05,9e-05,0.0,-3e-05,0.0,1,20.0
1980,-1e-05,-1e-05,-2e-05,-2e-05,9e-05,0.0,-3e-05,0.0,1,20.0
1981,-1e-05,-1e-05,-2e-05,-2e-05,9e-05,0.0,-3e-05,0.0,1,20.0
1982,0.0,1e-05,2e-05,2e-05,-4e-05,0.00033,3e-05,0.0,1,20.0
1983,0.0,1e-05,2e-05,2e-05,-4e-05,0.00033,3e-05,0.0,1,20.0
1984,0.0,1e-05,2e-05,2e-05,-4e-05,0.00033,3e-05,0.0,1,20.0
1985,0.0,1e-05,2e-05,2e-05,-4e-05,0.00033,3e-05,0.0,1,20.0
1986,0.0,1e-05,2e-05,2e-05,-4e-05,0.00033,3e-05,0.0,1,20.0
1988,0.0,1e-05,2e-05,2e-05,-4e-05,0.00033,3e-05,0.0,1,20.0
1989,0.0,1e-05,2e-05,2e-05,-4e-05,0.00033,3e-05,0.0,1,20.0
1990,0.0,1e-05,2e-05,2e-05,-4e-05,0.00033,3e-05,0.0,1,20.0
1991,0.0,1e-05,2e-05,2e-05,-4e-05,0.00033,3e-05,0.0,1,20.0
1992,0.0,1e-05,2e-05,2e-05,-4e-05,0.00033,3e-05,0.0,1,20.0
1993,0.0,1e-05,2e-05,2e-05,-4e-05,0.00033,3e-05,0.0,1,20.0
1994,0.0,1e-05,2e-05,2e-05,-4e-05,0.00033,3e-05,0.0,1,20.0
1995,0.0,1e-05,2e-05,2e-05,-4e-05,0.00033,3e-05,0.0,1,20.0
1996,0.0,1e-05,2e-05,2e-05,-4e-05,0.00033,3e-05,0.0,1,20.0
1997,0.0,0.0,4e-05,6e-05,-2e-05,-6e-05,0.0,-1e-05,1,20.0
1998,0.0,0.0,4e-05,6e-05,-2e-05,-6e-05,0.0,-1e-05,1,20.0
1999,-2e-05,-2e-05,-2e-05,0.0,1e-05,-0.00018,-5e-05,-2e-05,1,20.0
2000,-2e-05,-2e-05,-2e-05,0.0,1e-05,-0.00018,-5e-05,-2e-05,1,20.0
2001,-2e-05,-2e-05,-2e-05,0.0,1e-05,-0.00018,-5e-05,-2e-05,1,20.0
2002,-2e-05,-2e-05,-2e-05,0.0,1e-05,-0.00018,-5e-05,-2e-05,1,20.0
2003,-2e-05,-2e-05,-2e-05,0.0,1e-05,-0.00018,-5e-05,-2e-05,1,20.0
2004,-2e-05,-2e-05,-2e-05,0.0,1e-05,-0.00018,-5e-05,-2e-05,1,20.0
2005,-2e-05,-2e-05,-2e-05,0.0,1e-05,-0.00018,-5e-05,-2e-05,1,20.0
2006,-2e-05,-2e-05,-2e-05,0.0,1e-05,-0.00018,-5e-05,-2e-05,1,20.0
2007,-2e-05,-2e-05,-2e-05,0.0,1e-05,-0.00018,-5e-05,-2e-05,1,20.0
2008,-2e-05,-2e-05,-2e-05,0.0,1e-05,-0.00018,-5e-05,-2e-05,1,20.0
2009,-2e-05,-2e-05,-2e-05,0.0,1e-05,-0.00018,-5e-05,-2e-05,1,20.0
2010,-2e-05,-2e-05,-2e-05,0.0,1e-05,-0.00018,-5e-05,-2e-05,1,20.0
2011,-2e-05,-2e-05,-2e-05,0.0,1e-05,-0.00018,-5e-05,-2e-05,1,20.0
2012,-2e-05,-2e-05,-2e-05,0.0,1e-05,-0.00018,-5e-05,-2e-05,1,20.0
2013,-2e-05,-2e-05,-2e-05,0.0,1e-05,-0.00018,-5e-05,-2e-05,1,20.0
2014,-2e-05,-2e-05,-2e-05,0.0,1e-05,-0.00018,-5e-05,-2e-05,1,20.0
2015,-2e-05,-2e-05,-2e-05,0.0,1e-05,-0.00018,-5e-05,-2e-05,1,20.0
2016,-2e-05,-2e-05,-2e-05,0.0,1e-05,-0.00018,-5e-05,-2e-05,1,20.0
2017,-2e-05,-2e-05,-2e-05,0.0,1e-05,-0.00018,-5e-05,-2e-05,1,20.0
2018,-2e-05,-2e-05,-2e-05,0.0,1e-05,-0.00018,-5e-05,-2e-05,1,20.0
2019,-2e-05,-2e-05,-2e-05,0.0,1e-05,-0.00018,-5e-05,-2e-05,1,20.0
2020,-1e-05,-2e-05,-6e-05,-7e-05,0.0,7e-05,-1e-05,0.0,1,20.0
2021,0.0,1e-05,2e-05,0.00013,-0.00011,-4e-05,-2e-05,0.0,1,20.0
2022,0.0,1e-05,2e-05,0.00013,-0.00011,-4e-05,-2e-05,0.0,1,20.0
2023,0.0,1e-05,2e-05,0.00013,-0.00011,-4e-05,-2e-05,0.0,1,20.0
2024,0.0,1e-05,2e-05,0.00013,-0.00011,-4e-05,-2e-05,0.0,1,20.0
2025,0.0,1e-05,2e-05,0.00013,-0.00011,-4e-05,-2e-05,0.0,1,20.0
2026,0.0,1e-05,2e-05,0.00013,-0.00011,-4e-05,-2e-05,0.0,1,20.0
2027,0.0,1e-05,2e-05,0.00013,-0.00011,-4e-05,-2e-05,0.0,1,20.0
2028,0.0,1e-05,2e-05,0.00013,-0.00011,-4e-05,-2e-05,0.0,1,20.0
2029,0.0,1e-05,2e-05,0.00013,-0.00011,-4e-05,-2e-05,0.0,1,20.0
2030,0.0,1e-05,2e-05,0.00013,-0.00011,-4e-05,-2e-05,0.0,1,20.0
2031,0.0,1e-05,2e-05,0.00013,-0.00011,-4e-05,-2e-05,0.0,1,20.0
2032,0.0,1e-05,2e-05,0.00013,-0.00011,-4e-05,-2e-05,0.0,1,20.0
2033,0.0,1e-05,2e-05,0.00013,-0.00011,-4e-05,-2e-05,0.0,1,20.0
2034,0.0,1e-05,2e-05,0.00013,-0.00011,-4e-05,-2e-05,0.0,1,20.0
2035,0.0,1e-05,2e-05,0.00013,-0.00011,-4e-05,-2e-05,0.0,1,20.0
2036,0.0,1e-05,2e-05,0.00013,-0.00011,-4e-05,-2e-05,0.0,1,20.0
2038,0.0,1e-05,2e-05,0.00013,-0.00011,-4e-05,-2e-05,0.0,1,20.0
2039,0.0,1e-05,2e-05,0.00013,-0.00011,-4e-05,-2e-05,0.0,1,20.0
2040,0.0,1e-05,2e-05,0.00013,-0.00011,-4e-05,-2e-05,0.0,1,20.0
2041,0.0,1e-05,2e-05,0.00013,-0.00011,-4e-05,-2e-05,0.0,1,20.0
2042,-1e-05,0.0,0.0,-4e-05,0.0,7e-05,2e-05,0.0,1,20.0
2043,-1e-05,0.0,0.0,-4e-05,0.0,7e-05,2e-05,0.0,1,20.0
2044,1e-05,-4e-05,-9e-05,-0.00025,1e-05,-7e-05,-1e-05,0.0,1,20.0
2045,1e-05,-4e-05,-9e-05,-0.00025,1e-05,-7e-05,-1e-05,0.0,1,20.0
2046,1e-05,-4e-05,-9e-05,-0.00025,1e-05,-7e-05,-1e-05,0.0,1,20.0
2047,1e-05,-4e-05,-9e-05,-0.00025,1e-05,-7e-05,-1e-05,0.0,1,20.0
2048,1e-05,-4e-05,-9e-05,-0.00025,1e-05,-7e-05,-1e-05,0.0,1,20.0
2049,1e-05,-4e-05,-9e-05,-0.00025,1e-05,-7e-05,-1e-05,0.0,1,20.0
2050,1e-05,-4e-05,-9e-05,-0.00025,1e-05,-7e-05,-1e-05,0.0,1,20.0
2051,1e-05,-4e-05,-9e-05,-0.00025,1e-05,-7e-05,-1e-05,0.0,1,20.0
2052,1e-05,-4e-05,-9e-05,-0.00025,1e-05,-7e-05,-1e-05,0.0,1,20.0
2053,1e-05,-4e-05,-9e-05,-0.00025,1e-05,-7e-05,-1e-05,0.0,1,20.0
2054,1e-05,-4e-05,-9e-05,-0.00025,1e-05,-7e-05,-1e-05,0.0,1,20.0
2055,1e-05,-4e-05,-9e-05,-0.00025,1e-05,-7e-05,-1e-05,0.0,1,20.0
2056,1e-05,-4e-05,-9e-05,-0.00025,1e-05,-7e-05,-1e-05,0.0,1,20.0
2057,1e-05,-4e-05,-9e-05,-0.00025,1e-05,-7e-05,-1e-05,0.0,1,20.0
2058,-2e-05,0.0,-3e-05,-6e-05,-4e-05,-3e-05,0.0,0.0,1,20.0
2059,-1e-05,-2e-05,2e-05,0.00012,5e-05,-1e-05,0.0,0.0,1,20.0
2060,-1e-05,-2e-05,2e-05,0.00012,5e-05,-1e-05,0.0,0.0,1,20.0
2061,-1e-05,-2e-05,2e-05,0.00012,5e-05,-1e-05,0.0,0.0,1,20.0
2062,-1e-05,-2e-05,2e-05,0.00012,5e-05,-1e-05,0.0,0.0,1,20.0
2063,-1e-05,-2e-05,2e-05,0.00012,5e-05,-1e-05,0.0,0.0,1,20.0
2064,-1e-05,-2e-05,2e-05,0.00012,5e-05,-1e-05,0.0,0.0,1,20.0
2065,-1e-05,-2e-05,2e-05,0.00012,5e-05,-1e-05,0.0,0.0,1,20.0
2066,-1e-05,-2e-05,2e-05,0.00012,5e-05,-1e-05,0.0,0.0,1,20.0
2067,-1e-05,-2e-05,2e-05,0.00012,5e-05,-1e-05,0.0,0.0,1,20.0
2068,-1e-05,-2e-05,2e-05,0.00012,5e-05,-1e-05,0.0,0.0,1,20.0
2069,-1e-05,-2e-05,2e-05,0.00012,5e-05,-1e-05,0.0,0.0,1,20.0
2070,-1e-05,-2e-05,2e-05,0.00012,5e-05,-1e-05,0.0,0.0,1,20.0
2071,-1e-05,-2e-05,2e-05,0.00012,5e-05,-1e-05,0.0,0.0,1,20.0
2072,-1e-05,-2e-05,2e-05,0.00012,5e-05,-1e-05,0.0,0.0,1,20.0
2073,-1e-05,-2e-05,2e-05,0.00012,5e-05,-1e-05,0.0,0.0,1,20.0
2074,-1e-05,-2e-05,2e-05,0.00012,5e-05,-1e-05,0.0,0.0,1,20.0
2075,-1e-05,-2e-05,2e-05,0.00012,5e-05,-1e-05,0.0,0.0,1,20.0
2076,-1e-05,-2e-05,2e-05,0.00012,5e-05,-1e-05,0.0,0.0,1,20.0
2077,-1e-05,-2e-05,2e-05,0.00012,5e-05,-1e-05,0.0,0.0,1,20.0
2078,-1e-05,-2e-05,2e-05,0.00012,5e-05,-1e-05,0.0,0.0,1,20.0
2079,-1e-05,-2e-05,2e-05,0.00012,5e-05,-1e-05,0.0,0.0,1,20.0
2080,1e-05,-1e-05,-3e-05,-7e-05,-3e-05,-1e-05,-1e-05,-2e-05,1,20.0
2081,-1e-05,-1e-05,0.0,0.0,-5e-05,-4e-05,1e-05,1e-05,1,20.0
2082,-2e-05,1e-05,3e-05,-6e-05,0.0,-4e-05,-4e-05,-4e-05,1,20.0
2083,-2e-05,1e-05,3e-05,-6e-05,0.0,-4e-05,-4e-05,-4e-05,1,20.0
2084,-2e-05,1e-05,3e-05,-6e-05,0.0,-4e-05,-4e-05,-4e-05,1,20.0
2085,-2e-05,1e-05,3e-05,-6e-05,0.0,-4e-05,-4e-05,-4e-05,1,20.0
2086,-2e-05,1e-05,3e-05,-6e-05,0.0,-4e-05,-4e-05,-4e-05,1,20.0
2088,-2e-05,1e-05,3e-05,-6e-05,0.0,-4e-05,-4e-05,-4e-05,1,20.0
2089,-2e-05,1e-05,3e-05,-6e-05,0.0,-4e-05,-4e-05,-4e-05,1,20.0
2090,-2e-05,1e-05,3e-05,-6e-05,0.0,-4e-05,-4e-05,-4e-05,1,20.0
2091,-2e-05,1e-05,3e-05,-6e-05,0.0,-4e-05,-4e-05,-4e-05,1,20.0
2092,-2e-05,1e-05,3e-05,-6e-05,0.0,-4e-05,-4e-05,-4e-05,1,20.0
2093,-2e-05,1e-05,3e-05,-6e-05,0.0,-4e-05,-4e-05,-4e-05,1,20.0
2094,-2e-05,1e-05,3e-05,-6e-05,0.0,-4e-05,-4e-05,-4e-05,1,20.0
2095,-2e-05,1e-05,3e-05,-6e-05,0.0,-4e-05,-4e-05,-4e-05,1,20.0
2096,-2e-05,1e-05,3e-05,-6e-05,0.0,-4e-05,-4e-05,-4e-05,1,20.0
2097,-2e-05,1e-05,3e-05,-6e-05,0.0,-4e-05,-4e-05,-4e-05,1,20.0
2098,-2e-05,1e-05,3e-05,-6e-05,0.0,-4e-05,-4e-05,-4e-05,1,20.0
2099,-2e-05,1e-05,3e-05,-6e-05,0.0,-4e-05,-4e-05,-4e-05,1,20.0
2100,-2e-05,1e-05,3e-05,-6e-05,0.0,-4e-05,-4e-05,-4e-05,1,20.0
2101,-2e-05,1e-05,3e-05,-6e-05,0.0,-4e-05,-4e-05,-4e-05,1,20.0
2102,-1e-05,0.0,4e-05,5e-05,-1e-05,-2e-05,-4e-05,-1e-05,1,20.0
2103,-1e-05,0.0,4e-05,5e-05,-1e-05,-2e-05,-4e-05,-1e-05,1,20.0
2104,-2e-05,-2e-05,-3e-05,-0.0001,-1e-05,-4e-05,-1e-05,-1e-05,1,20.0
2105,-2e-05,-2e-05,-3e-05,-0.0001,-1e-05,-4e-05,-1e-05,-1e-05,1,20.0
2106,-2e-05,-2e-05,-3e-05,-0.0001,-1e-05,-4e-05,-1e-05,-1e-05,1,20.0
2107,-2e-05,-2e-05,-3e-05,-0.0001,-1e-05,-4e-05,-1e-05,-1e-05,1,20.0
2108,-2e-05,-2e-05,-3e-05,-0.0001,-1e-05,-4e-05,-1e-05,-1e-05,1,20.0
2109,-2e-05,-2e-05,-3e-05,-0.0001,-1e-05,-4e-05,-1e-05,-1e-05,1,20.0
2110,-2e-05,-2e-05,-3e-05,-0.0001,-1e-05,-4e-05,-1e-05,-1e-05,1,20.0
2111,-2e-05,-2e-05,-3e-05,-0.0001,-1e-05,-4e-05,-1e-05,-1e-05,1,20.0
2112,-2e-05,-2e-05,-3e-05,-0.0001,-1e-05,-4e-05,-1e-05,-1e-05,1,20.0
2113,-2e-05,-2e-05,-3e-05,-0.0001,-1e-05,-4e-05,-1e-05,-1e-05,1,20.0
2114,-2e-05,-2e-05,-3e-05,-0.0001,-1e-05,-4e-05,-1e-05,-1e-05,1,20.0
2115,-2e-05,-2e-05,-3e-05,-0.0001,-1e-05,-4e-05,-1e-05,-1e-05,1,20.0
2116,-2e-05,-2e-05,-3e-05,-0.0001,-1e-05,-4e-05,-1e-05,-1e-05,1,20.0
2117,0.0,-2e-05,-5e-05,-2e-05,1e-05,-0.00018,-3e-05,-1e-05,1,20.0
2118,0.0,-2e-05,-5e-05,-2e-05,1e-05,-0.00018,-3e-05,-1e-05,1,20.0
2119,-1e-05,0.0,-1e-05,-6e-05,-4e-05,-7e-05,-2e-05,1e-05,1,20.0
2120,-1e-05,0.0,-1e-05,-6e-05,-4e-05,-7e-05,-2e-05,1e-05,1,20.0
2121,-1e-05,0.0,-1e-05,-6e-05,-4e-05,-7e-05,-2e-05,1e-05,1,20.0
2122,-1e-05,0.0,-1e-05,-6e-05,-4e-05,-7e-05,-2e-05,1e-05,1,20.0
2123,-1e-05,0.0,-1e-05,-6e-05,-4e-05,-7e-05,-2e-05,1e-05,1,20.0
2124,-1e-05,0.0,-1e-05,-6e-05,-4e-05,-7e-05,-2e-05,1e-05,1,20.0
2125,-1e-05,0.0,-1e-05,-6e-05,-4e-05,-7e-05,-2e-05,1e-05,1,20.0
2126,-1e-05,0.0,-1e-05,-6e-05,-4e-05,-7e-05,-2e-05,1e-05,1,20.0
2127,-1e-05,0.0,-1e-05,-6e-05,-4e-05,-7e-05,-2e-05,1e-05,1,20.0
2128,-1e-05,0.0,-1e-05,-6e-05,-4e-05,-7e-05,-2e-05,1e-05,1,20.0
2129,-1e-05,0.0,-1e-05,-6e-05,-4e-05,-7e-05,-2e-05,1e-05,1,20.0
2130,-1e-05,0.0,-1e-05,-6e-05,-4e-05,-7e-05,-2e-05,1e-05,1,20.0
2131,-1e-05,0.0,-1e-05,-6e-05,-4e-05,-7e-05,-2e-05,1e-05,1,20.0
2132,-1e-05,0.0,-1e-05,-6e-05,-4e-05,-7e-05,-2e-05,1e-05,1,20.0
2133,-1e-05,0.0,-1e-05,-6e-05,-4e-05,-7e-05,-2e-05,1e-05,1,20.0
2134,-1e-05,0.0,-1e-05,-6e-05,-4e-05,-7e-05,-2e-05,1e-05,1,20.0
2135,-1e-05,0.0,-1e-05,-6e-05,-4e-05,-7e-05,-2e-05,1e-05,1,20.0
2136,-1e-05,0.0,-1e-05,-6e-05,-4e-05,-7e-05,-2e-05,1e-05,1,20.0
2138,-1e-05,0.0,-1e-05,-6e-05,-4e-05,-7e-05,-2e-05,1e-05,1,20.0
2139,-1e-05,0.0,-1e-05,-6e-05,-4e-05,-7e-05,-2e-05,1e-05,1,20.0
2140,-1e-05,-1e-05,-1e-05,-2e-05,2e-05,-6e-05,0.0,0.0,1,20.0
2141,-2e-05,0.0,0.0,4e-05,-3e-05,-7e-05,1e-05,0.0,1,20.0
2142,-1e-05,-3e-05,-2e-05,8e-05,-2e-05,-0.00012,0.0,-1e-05,1,20.0
2143,-1e-05,-3e-05,-2e-05,8e-05,-2e-05,-0.00012,0.0,-1e-05,1,20.0
2144,-1e-05,-3e-05,-2e-05,8e-05,-2e-05,-0.00012,0.0,-1e-05,1,20.0
2145,-1e-05,-3e-05,-2e-05,8e-05,-2e-05,-0.00012,0.0,-1e-05,1,20.0
2146,-1e-05,-3e-05,-2e-05,8e-05,-2e-05,-0.00012,0.0,-1e-05,1,20.0
2147,-1e-05,-3e-05,-2e-05,8e-05,-2e-05,-0.00012,0.0,-1e-05,1,20.0
2148,-1e-05,-3e-05,-2e-05,8e-05,-2e-05,-0.00012,0.0,-1e-05,1,20.0
2149,-1e-05,-3e-05,-2e-05,8e-05,-2e-05,-0.00012,0.0,-1e-05,1,20.0
2150,-1e-05,-3e-05,-2e-05,8e-05,-2e-05,-0.00012,0.0,-1e-05,1,20.0
2151,-1e-05,-3e-05,-2e-05,8e-05,-2e-05,-0.00012,0.0,-1e-05,1,20.0
2152,-1e-05,-3e-05,-2e-05,8e-05,-2e-05,-0.00012,0.0,-1e-05,1,20.0
2153,-1e-05,-3e-05,-2e-05,8e-05,-2e-05,-0.00012,0.0,-1e-05,1,20.0
2154,-1e-05,-3e-05,-2e-05,8e-05,-2e-05,-0.00012,0.0,-1e-05,1,20.0
2155,-1e-05,-3e-05,-2e-05,8e-05,-2e-05,-0.00012,0.0,-1e-05,1,20.0
2156,-1e-05,-3e-05,-2e-05,8e-05,-2e-05,-0.00012,0.0,-1e-05,1,20.0
2157,-1e-05,-3e-05,-2e-05,8e-05,-2e-05,-0.00012,0.0,-1e-05,1,20.0
2158,-1e-05,-3e-05,-2e-05,8e-05,-2e-05,-0.00012,0.0,-1e-05,1,20.0
2159,-1e-05,-3e-05,-2e-05,8e-05,-2e-05,-0.00012,0.0,-1e-05,1,20.0
2160,-1e-05,-3e-05,-2e-05,8e-05,-2e-05,-0.00012,0.0,-1e-05,1,20.0
2161,-1e-05,-3e-05,-2e-05,8e-05,-2e-05,-0.00012,0.0,-1e-05,1,20.0
2162,-1e-05,-3e-05,-2e-05,8e-05,-2e-05,-0.00012,0.0,-1e-05,1,20.0
2163,-1e-05,2e-05,4e-05,3e-05,-3e-05,-5e-05,-3e-05,-2e-05,1,20.0
2164,-1e-05,-3e-05,-5e-05,-6e-05,2e-05,8e-05,2e-05,-1e-05,1,20.0
2165,-1e-05,-3e-05,-5e-05,-6e-05,2e-05,8e-05,2e-05,-1e-05,1,20.0
2166,-1e-05,-3e-05,-5e-05,-6e-05,2e-05,8e-05,2e-05,-1e-05,1,20.0
2167,-1e-05,-3e-05,-5e-05,-6e-05,2e-05,8e-05,2e-05,-1e-05,1,20.0
2168,-1e-05,-3e-05,-5e-05,-6e-05,2e-05,8e-05,2e-05,-1e-05,1,20.0
2169,-1e-05,-3e-05,-5e-05,-6e-05,2e-05,8e-05,2e-05,-1e-05,1,20.0
2170,-1e-05,-3e-05,-5e-05,-6e-05,2e-05,8e-05,2e-05,-1e-05,1,20.0
2171,-1e-05,-3e-05,-5e-05,-6e-05,2e-05,8e-05,2e-05,-1e-05,1,20.0
2172,-1e-05,-3e-05,-5e-05,-6e-05,2e-05,8e-05,2e-05,-1e-05,1,20.0
2173,-1e-05,-3e-05,-5e-05,-6e-05,2e-05,8e-05,2e-05,-1e-05,1,20.0
2174,-1e-05,-3e-05,-5e-05,-6e-05,2e-05,8e-05,2e-05,-1e-05,1,20.0
2175,-1e-05,-3e-05,-5e-05,-6e-05,2e-05,8e-05,2e-05,-1e-05,1,20.0
2176,-1e-05,-3e-05,-5e-05,-6e-05,2e-05,8e-05,2e-05,-1e-05,1,20.0
2177,0.0,0.0,3e-05,5e-05,1e-05,-6e-05,1e-05,-2e-05,1,20.0
2178,0.0,0.0,3e-05,5e-05,1e-05,-6e-05,1e-05,-2e-05,1,20.0
2179,0.0,0.0,3e-05,5e-05,1e-05,-6e-05,1e-05,-2e-05,1,20.0
2180,0.0,0.0,3e-05,5e-05,1e-05,-6e-05,1e-05,-2e-05,1,20.0
2181,0.0,0.0,3e-05,5e-05,1e-05,-6e-05,1e-05,-2e-05,1,20.0
2182,0.0,0.0,3e-05,5e-05,1e-05,-6e-05,1e-05,-2e-05,1,20.0
2183,-1e-05,0.0,0.0,3e-05,-5e-05,-5e-05,-2e-05,-2e-05,1,20.0
2184,0.0,1e-05,3e-05,-2e-05,-2e-05,3e-05,0.0,-1e-05,1,20.0
2185,0.0,1e-05,3e-05,-2e-05,-2e-05,3e-05,0.0,-1e-05,1,20.0
2186,0.0,1e-05,3e-05,-2e-05,-2e-05,3e-05,0.0,-1e-05,1,20.0
2188,0.0,1e-05,3e-05,-2e-05,-2e-05,3e-05,0.0,-1e-05,1,20.0
2189,0.0,1e-05,3e-05,-2e-05,-2e-05,3e-05,0.0,-1e-05,1,20.0
2191,0.0,1e-05,3e-05,-2e-05,-2e-05,3e-05,0.0,-1e-05,1,20.0
2192,0.0,1e-05,3e-05,-2e-05,-2e-05,3e-05,0.0,-1e-05,1,20.0
2193,0.0,1e-05,3e-05,-2e-05,-2e-05,3e-05,0.0,-1e-05,1,20.0
2194,0.0,1e-05,3e-05,-2e-05,-2e-05,3e-05,0.0,-1e-05,1,20.0
2195,0.0,1e-05,3e-05,-2e-05,-2e-05,3e-05,0.0,-1e-05,1,20.0
2196,0.0,1e-05,3e-05,-2e-05,-2e-05,3e-05,0.0,-1e-05,1,20.0
2197,0.0,1e-05,3e-05,-2e-05,-2e-05,3e-05,0.0,-1e-05,1,20.0
2198,0.0,1e-05,3e-05,-2e-05,-2e-05,3e-05,0.0,-1e-05,1,20.0
2199,0.0,1e-05,3e-05,-2e-05,-2e-05,3e-05,0.0,-1e-05,1,20.0
2200,-3e-05,-4e-05,-7e-05,0.0,-6e-05,-8e-05,-4e-05,0.0,1,20.0
2201,1e-05,-1e-05,0.0,0.0001,5e-05,1e-05,2e-05,0.0,1,20.0
2202,-2e-05,-1e-05,0.0,-8e-05,-4e-05,-7e-05,-1e-05,-1e-05,1,20.0
2203,-2e-05,-1e-05,0.0,-8e-05,-4e-05,-7e-05,-1e-05,-1e-05,1,20.0
2204,-2e-05,-1e-05,0.0,-8e-05,-4e-05,-7e-05,-1e-05,-1e-05,1,20.0
2205,-2e-05,-1e-05,0.0,-8e-05,-4e-05,-7e-05,-1e-05,-1e-05,1,20.0
2206,-2e-05,-1e-05,0.0,-8e-05,-4e-05,-7e-05,-1e-05,-1e-05,1,20.0
2207,-2e-05,-1e-05,0.0,-8e-05,-4e-05,-7e-05,-1e-05,-1e-05,1,20.0
2208,-2e-05,-1e-05,0.0,-8e-05,-4e-05,-7e-05,-1e-05,-1e-05,1,20.0
2209,-2e-05,-1e-05,0.0,-8e-05,-4e-05,-7e-05,-1e-05,-1e-05,1,20.0
2210,-2e-05,-1e-05,0.0,-8e-05,-4e-05,-7e-05,-1e-05,-1e-05,1,20.0
2211,-2e-05,-1e-05,0.0,-8e-05,-4e-05,-7e-05,-1e-05,-1e-05,1,20.0
2212,-2e-05,-1e-05,0.0,-8e-05,-4e-05,-7e-05,-1e-05,-1e-05,1,20.0
2213,-2e-05,-1e-05,0.0,-8e-05,-4e-05,-7e-05,-1e-05,-1e-05,1,20.0
2214,-2e-05,-1e-05,0.0,-8e-05,-4e-05,-7e-05,-1e-05,-1e-05,1,20.0
2215,-2e-05,-1e-05,0.0,-8e-05,-4e-05,-7e-05,-1e-05,-1e-05,1,20.0
2216,-2e-05,-1e-05,0.0,-8e-05,-4e-05,-7e-05,-1e-05,-1e-05,1,20.0
2217,-2e-05,-1e-05,0.0,-8e-05,-4e-05,-7e-05,-1e-05,-1e-05,1,20.0
2218,-2e-05,-1e-05,0.0,-8e-05,-4e-05,-7e-05,-1e-05,-1e-05,1,20.0
2219,-2e-05,-1e-05,0.0,-8e-05,-4e-05,-7e-05,-1e-05,-1e-05,1,20.0
2220,-2e-05,-1e-05,0.0,-8e-05,-4e-05,-7e-05,-1e-05,-1e-05,1,20.0
2221,-2e-05,-1e-05,0.0,-8e-05,-4e-05,-7e-05,-1e-05,-1e-05,1,20.0
2222,0.0,-1e-05,3e-05,4e-05,2e-05,9e-05,1e-05,1e-05,1,20.0
2223,0.0,-1e-05,3e-05,4e-05,2e-05,9e-05,1e-05,1e-05,1,20.0
2224,-2e-05,-4e-05,-5e-05,-3e-05,-4e-05,0.00017,-4e-05,-1e-05,1,20.0
2225,-2e-05,-4e-05,-5e-05,-3e-05,-4e-05,0.00017,-4e-05,-1e-05,1,20.0
2226,-2e-05,-4e-05,-5e-05,-3e-05,-4e-05,0.00017,-4e-05,-1e-05,1,20.0
2227,-2e-05,-4e-05,-5e-05,-3e-05,-4e-05,0.00017,-4e-05,-1e-05,1,20.0
2228,-2e-05,-4e-05,-5e-05,-3e-05,-4e-05,0.00017,-4e-05,-1e-05,1,20.0
2229,-2e-05,-4e-05,-5e-05,-3e-05,-4e-05,0.00017,-4e-05,-1e-05,1,20.0
2230,-2e-05,-4e-05,-5e-05,-3e-05,-4e-05,0.00017,-4e-05,-1e-05,1,20.0
2231,-2e-05,-4e-05,-5e-05,-3e-05,-4e-05,0.00017,-4e-05,-1e-05,1,20.0
2232,-2e-05,-4e-05,-5e-05,-3e-05,-4e-05,0.00017,-4e-05,-1e-05,1,20.0
2233,-2e-05,-4e-05,-5e-05,-3e-05,-4e-05,0.00017,-4e-05,-1e-05,1,20.0
2234,-2e-05,-4e-05,-5e-05,-3e-05,-4e-05,0.00017,-4e-05,-1e-05,1,20.0
2235,-2e-05,-4e-05,-5e-05,-3e-05,-4e-05,0.00017,-4e-05,-1e-05,1,20.0
2236,-2e-05,-1e-05,0.0,0.0,1e-05,0.0001,-1e-05,-2e-05,1,20.0
2239,-2e-05,-1e-05,0.0,0.0,1e-05,0.0001,-1e-05,-2e-05,1,20.0
2240,-2e-05,-1e-05,0.0,0.0,1e-05,0.0001,-1e-05,-2e-05,1,20.0
2241,-2e-05,-1e-05,0.0,0.0,1e-05,0.0001,-1e-05,-2e-05,1,20.0
2242,-2e-05,-1e-05,0.0,0.0,1e-05,0.0001,-1e-05,-2e-05,1,20.0
2243,0.0,3e-05,1e-05,7e-05,4e-05,1e-05,-2e-05,0.0,1,20.0
2244,0.0,3e-05,1e-05,7e-05,4e-05,1e-05,-2e-05,0.0,1,20.0
2245,0.0,3e-05,1e-05,7e-05,4e-05,1e-05,-2e-05,0.0,1,20.0
2246,0.0,3e-05,1e-05,7e-05,4e-05,1e-05,-2e-05,0.0,1,20.0
2247,0.0,3e-05,1e-05,7e-05,4e-05,1e-05,-2e-05,0.0,1,20.0
2248,0.0,3e-05,1e-05,7e-05,4e-05,1e-05,-2e-05,0.0,1,20.0
2249,0.0,3e-05,1e-05,7e-05,4e-05,1e-05,-2e-05,0.0,1,20.0
2250,0.0,3e-05,1e-05,7e-05,4e-05,1e-05,-2e-05,0.0,1,20.0
2251,0.0,3e-05,1e-05,7e-05,4e-05,1e-05,-2e-05,0.0,1,20.0
2253,0.0,3e-05,1e-05,7e-05,4e-05,1e-05,-2e-05,0.0,1,20.0
2254,0.0,3e-05,1e-05,7e-05,4e-05,1e-05,-2e-05,0.0,1,20.0
2255,0.0,3e-05,1e-05,7e-05,4e-05,1e-05,-2e-05,0.0,1,20.0
2256,0.0,3e-05,1e-05,7e-05,4e-05,1e-05,-2e-05,0.0,1,20.0
2257,0.0,3e-05,1e-05,7e-05,4e-05,1e-05,-2e-05,0.0,1,20.0
2258,0.0,3e-05,1e-05,7e-05,4e-05,1e-05,-2e-05,0.0,1,20.0
2259,0.0,3e-05,1e-05,7e-05,4e-05,1e-05,-2e-05,0.0,1,20.0
2260,1e-05,0.0,1e-05,2e-05,0.0,2e-05,1e-05,-1e-05,1,20.0
2261,1e-05,0.0,2e-05,2e-05,1e-05,4e-05,0.0,0.0,1,20.0
2262,-1e-05,-5e-05,-7e-05,-4e-05,0.0,0.0,0.0,-1e-05,1,20.0
2263,-1e-05,-5e-05,-7e-05,-4e-05,0.0,0.0,0.0,-1e-05,1,20.0
2264,-1e-05,-5e-05,-7e-05,-4e-05,0.0,0.0,0.0,-1e-05,1,20.0
2265,-1e-05,-5e-05,-7e-05,-4e-05,0.0,0.0,0.0,-1e-05,1,20.0
2266,-1e-05,-5e-05,-7e-05,-4e-05,0.0,0.0,0.0,-1e-05,1,20.0
2267,-1e-05,-5e-05,-7e-05,-4e-05,0.0,0.0,0.0,-1e-05,1,20.0
2268,-1e-05,-5e-05,-7e-05,-4e-05,0.0,0.0,0.0,-1e-05,1,20.0
2269,-1e-05,-5e-05,-7e-05,-4e-05,0.0,0.0,0.0,-1e-05,1,20.0
2270,-1e-05,-5e-05,-7e-05,-4e-05,0.0,0.0,0.0,-1e-05,1,20.0
2271,-1e-05,-5e-05,-7e-05,-4e-05,0.0,0.0,0.0,-1e-05,1,20.0
2272,-1e-05,-5e-05,-7e-05,-4e-05,0.0,0.0,0.0,-1e-05,1,20.0
2273,-1e-05,-5e-05,-7e-05,-4e-05,0.0,0.0,0.0,-1e-05,1,20.0
2274,-1e-05,-5e-05,-7e-05,-4e-05,0.0,0.0,0.0,-1e-05,1,20.0
2275,-1e-05,-5e-05,-7e-05,-4e-05,0.0,0.0,0.0,-1e-05,1,20.0
2276,-1e-05,-5e-05,-7e-05,-4e-05,0.0,0.0,0.0,-1e-05,1,20.0
2277,-1e-05,-5e-05,-7e-05,-4e-05,0.0,0.0,0.0,-1e-05,1,20.0
2278,-1e-05,-5e-05,-7e-05,-4e-05,0.0,0.0,0.0,-1e-05,1,20.0
2279,-1e-05,-5e-05,-7e-05,-4e-05,0.0,0.0,0.0,-1e-05,1,20.0
2280,-1e-05,-5e-05,-7e-05,-4e-05,0.0,0.0,0.0,-1e-05,1,20.0
2281,-1e-05,-5e-05,-7e-05,-4e-05,0.0,0.0,0.0,-1e-05,1,20.0
2282,-2e-05,-2e-05,2e-05,5e-05,-2e-05,-0.00015,-4e-05,0.0,1,20.0
2283,-2e-05,-2e-05,2e-05,5e-05,-2e-05,-0.00015,-4e-05,0.0,1,20.0
2284,0.0,2e-05,2e-05,-1e-05,5e-05,2e-05,0.0,0.0,1,20.0
2285,0.0,2e-05,2e-05,-1e-05,5e-05,2e-05,0.0,0.0,1,20.0
2286,0.0,2e-05,2e-05,-1e-05,5e-05,2e-05,0.0,0.0,1,20.0
2288,0.0,2e-05,2e-05,-1e-05,5e-05,2e-05,0.0,0.0,1,20.0
2289,0.0,2e-05,2e-05,-1e-05,5e-05,2e-05,0.0,0.0,1,20.0
2290,0.0,2e-05,2e-05,-1e-05,5e-05,2e-05,0.0,0.0,1,20.0
2291,0.0,2e-05,2e-05,-1e-05,5e-05,2e-05,0.0,0.0,1,20.0
2292,0.0,2e-05,2e-05,-1e-05,5e-05,2e-05,0.0,0.0,1,20.0
2293,0.0,2e-05,2e-05,-1e-05,5e-05,2e-05,0.0,0.0,1,20.0
2294,0.0,2e-05,2e-05,-1e-05,5e-05,2e-05,0.0,0.0,1,20.0
2295,0.0,2e-05,2e-05,-1e-05,5e-05,2e-05,0.0,0.0,1,20.0
2296,0.0,2e-05,2e-05,-1e-05,5e-05,2e-05,0.0,0.0,1,20.0
2297,1e-05,0.0,-3e-05,8e-05,2e-05,8e-05,0.0,-1e-05,1,20.0
2298,1e-05,0.0,-3e-05,8e-05,2e-05,8e-05,0.0,-1e-05,1,20.0
2299,1e-05,0.0,-3e-05,8e-05,2e-05,8e-05,0.0,-1e-05,1,20.0
2300,1e-05,0.0,-3e-05,8e-05,2e-05,8e-05,0.0,-1e-05,1,20.0
2301,1e-05,0.0,-3e-05,8e-05,2e-05,8e-05,0.0,-1e-05,1,20.0
2303,1e-05,0.0,-3e-05,8e-05,2e-05,8e-05,0.0,-1e-05,1,20.0
2304,1e-05,0.0,-3e-05,8e-05,2e-05,8e-05,0.0,-1e-05,1,20.0
2305,0.0,-2e-05,-3e-05,0.00015,-1e-05,3e-05,1e-05,0.0,1,20.0
2306,0.0,-2e-05,-3e-05,0.00015,-1e-05,3e-05,1e-05,0.0,1,20.0
2307,0.0,-2e-05,-3e-05,0.00015,-1e-05,3e-05,1e-05,0.0,1,20.0
2308,0.0,-2e-05,-3e-05,0.00015,-1e-05,3e-05,1e-05,0.0,1,20.0
2309,0.0,-2e-05,-3e-05,0.00015,-1e-05,3e-05,1e-05,0.0,1,20.0
2310,0.0,-2e-05,-3e-05,0.00015,-1e-05,3e-05,1e-05,0.0,1,20.0
2311,0.0,-2e-05,-3e-05,0.00015,-1e-05,3e-05,1e-05,0.0,1,20.0
2312,0.0,-2e-05,-3e-05,0.00015,-1e-05,3e-05,1e-05,0.0,1,20.0
2313,0.0,-2e-05,-3e-05,0.00015,-1e-05,3e-05,1e-05,0.0,1,20.0
2314,0.0,-2e-05,-3e-05,0.00015,-1e-05,3e-05,1e-05,0.0,1,20.0
2315,0.0,-2e-05,-3e-05,0.00015,-1e-05,3e-05,1e-05,0.0,1,20.0
2316,0.0,-2e-05,-3e-05,0.00015,-1e-05,3e-05,1e-05,0.0,1,20.0
2317,0.0,-2e-05,-3e-05,0.00015,-1e-05,3e-05,1e-05,0.0,1,20.0
2318,0.0,-2e-05,-3e-05,0.00015,-1e-05,3e-05,1e-05,0.0,1,20.0
2319,0.0,-2e-05,-3e-05,0.00015,-1e-05,3e-05,1e-05,0.0,1,20.0
2320,0.0,3e-05,1e-05,-5e-05,-3e-05,0.00021,-2e-05,-1e-05,1,20.0
2321,-1e-05,-3e-05,-1e-05,6e-05,-2e-05,-7e-05,1e-05,0.0,1,20.0
2322,-1e-05,-3e-05,-1e-05,6e-05,-2e-05,-7e-05,1e-05,0.0,1,20.0
2323,-1e-05,-3e-05,-1e-05,6e-05,-2e-05,-7e-05,1e-05,0.0,1,20.0
2324,-1e-05,-3e-05,-1e-05,6e-05,-2e-05,-7e-05,1e-05,0.0,1,20.0
2325,-1e-05,-3e-05,-1e-05,6e-05,-2e-05,-7e-05,1e-05,0.0,1,20.0
2326,-1e-05,-3e-05,-1e-05,6e-05,-2e-05,-7e-05,1e-05,0.0,1,20.0
2327,-1e-05,-3e-05,-1e-05,6e-05,-2e-05,-7e-05,1e-05,0.0,1,20.0
2328,-1e-05,-3e-05,-1e-05,6e-05,-2e-05,-7e-05,1e-05,0.0,1,20.0
2329,-1e-05,-3e-05,-1e-05,6e-05,-2e-05,-7e-05,1e-05,0.0,1,20.0
2330,-1e-05,-3e-05,-1e-05,6e-05,-2e-05,-7e-05,1e-05,0.0,1,20.0
2331,-1e-05,-3e-05,-1e-05,6e-05,-2e-05,-7e-05,1e-05,0.0,1,20.0
2332,-1e-05,-3e-05,-1e-05,6e-05,-2e-05,-7e-05,1e-05,0.0,1,20.0
2333,-1e-05,-3e-05,-1e-05,6e-05,-2e-05,-7e-05,1e-05,0.0,1,20.0
2334,-1e-05,-3e-05,-1e-05,6e-05,-2e-05,-7e-05,1e-05,0.0,1,20.0
2335,-1e-05,-3e-05,-1e-05,6e-05,-2e-05,-7e-05,1e-05,0.0,1,20.0
2336,-1e-05,-3e-05,-1e-05,6e-05,-2e-05,-7e-05,1e-05,0.0,1,20.0
2338,-1e-05,-3e-05,-1e-05,6e-05,-2e-05,-7e-05,1e-05,0.0,1,20.0
2339,-1e-05,-3e-05,-1e-05,6e-05,-2e-05,-7e-05,1e-05,0.0,1,20.0
2340,-1e-05,-3e-05,-1e-05,6e-05,-2e-05,-7e-05,1e-05,0.0,1,20.0
2341,-1e-05,-3e-05,-1e-05,6e-05,-2e-05,-7e-05,1e-05,0.0,1,20.0
2342,-1e-05,-5e-05,-9e-05,-3e-05,0.00012,9e-05,0.0,-2e-05,1,20.0
2343,-2e-05,0.0,3e-05,1e-05,-0.0001,-4e-05,-2e-05,-2e-05,1,20.0
2344,-2e-05,-2e-05,-4e-05,-0.0001,-3e-05,1e-05,-2e-05,-2e-05,1,20.0
2345,-2e-05,-2e-05,-4e-05,-0.0001,-3e-05,1e-05,-2e-05,-2e-05,1,20.0
2346,-2e-05,-2e-05,-4e-05,-0.0001,-3e-05,1e-05,-2e-05,-2e-05,1,20.0
2347,-2e-05,-2e-05,-4e-05,-0.0001,-3e-05,1e-05,-2e-05,-2e-05,1,20.0
2348,-2e-05,-2e-05,-4e-05,-0.0001,-3e-05,1e-05,-2e-05,-2e-05,1,20.0
2349,-2e-05,-2e-05,-4e-05,-0.0001,-3e-05,1e-05,-2e-05,-2e-05,1,20.0
2350,-2e-05,-2e-05,-4e-05,-0.0001,-3e-05,1e-05,-2e-05,-2e-05,1,20.0
2351,-2e-05,-2e-05,-4e-05,-0.0001,-3e-05,1e-05,-2e-05,-2e-05,1,20.0
2352,-2e-05,-2e-05,-4e-05,-0.0001,-3e-05,1e-05,-2e-05,-2e-05,1,20.0
2353,-2e-05,-2e-05,-4e-05,-0.0001,-3e-05,1e-05,-2e-05,-2e-05,1,20.0
2354,-2e-05,-2e-05,-4e-05,-0.0001,-3e-05,1e-05,-2e-05,-2e-05,1,20.0
2355,-2e-05,-2e-05,-4e-05,-0.0001,-3e-05,1e-05,-2e-05,-2e-05,1,20.0
2356,-2e-05,-2e-05,-4e-05,-0.0001,-3e-05,1e-05,-2e-05,-2e-05,1,20.0
2357,0.0,-2e-05,-2e-05,-2e-05,2e-05,-5e-05,0.0,-1e-05,1,20.0
2358,0.0,-2e-05,-2e-05,-2e-05,2e-05,-5e-05,0.0,-1e-05,1,20.0
2359,0.0,-2e-05,-2e-05,-2e-05,2e-05,-5e-05,0.0,-1e-05,1,20.0
2360,0.0,-2e-05,-2e-05,-2e-05,2e-05,-5e-05,0.0,-1e-05,1,20.0
2361,0.0,-2e-05,-2e-05,-2e-05,2e-05,-5e-05,0.0,-1e-05,1,20.0
2362,0.0,-2e-05,-2e-05,-2e-05,2e-05,-5e-05,0.0,-1e-05,1,20.0
2363,0.0,-2e-05,-2e-05,-2e-05,2e-05,-5e-05,0.0,-1e-05,1,20.0
2364,0.0,-1e-05,-2e-05,-0.00012,-8e-05,-0.00012,-3e-05,-2e-05,1,20.0
2365,0.0,-1e-05,-2e-05,-0.00012,-8e-05,-0.00012,-3e-05,-2e-05,1,20.0
2366,0.0,-1e-05,-2e-05,-0.00012,-8e-05,-0.00012,-3e-05,-2e-05,1,20.0
2367,0.0,-1e-05,-2e-05,-0.00012,-8e-05,-0.00012,-3e-05,-2e-05,1,20.0
2368,0.0,-1e-05,-2e-05,-0.00012,-8e-05,-0.00012,-3e-05,-2e-05,1,20.0
2369,0.0,-1e-05,-2e-05,-0.00012,-8e-05,-0.00012,-3e-05,-2e-05,1,20.0
2370,0.0,-1e-05,-2e-05,-0.00012,-8e-05,-0.00012,-3e-05,-2e-05,1,20.0
2371,0.0,-1e-05,-2e-05,-0.00012,-8e-05,-0.00012,-3e-05,-2e-05,1,20.0
2372,0.0,-1e-05,-2e-05,-0.00012,-8e-05,-0.00012,-3e-05,-2e-05,1,20.0
2373,0.0,-1e-05,-2e-05,-0.00012,-8e-05,-0.00012,-3e-05,-2e-05,1,20.0
2374,0.0,-1e-05,-2e-05,-0.00012,-8e-05,-0.00012,-3e-05,-2e-05,1,20.0
2375,0.0,-1e-05,-2e-05,-0.00012,-8e-05,-0.00012,-3e-05,-2e-05,1,20.0
2376,0.0,-1e-05,-2e-05,-0.00012,-8e-05,-0.00012,-3e-05,-2e-05,1,20.0
2377,0.0,-1e-05,-2e-05,-0.00012,-8e-05,-0.00012,-3e-05,-2e-05,1,20.0
2378,0.0,-1e-05,-2e-05,-0.00012,-8e-05,-0.00012,-3e-05,-2e-05,1,20.0
2379,0.0,-1e-05,-2e-05,-0.00012,-8e-05,-0.00012,-3e-05,-2e-05,1,20.0
2380,-3e-05,-5e-05,-1e-05,0.00026,0.00011,-9e-05,1e-05,-1e-05,1,20.0
2381,-1e-05,0.0,5e-05,0.0001,-9e-05,-0.00011,4e-05,-1e-05,1,20.0
2382,0.0,-2e-05,-2e-05,-6e-05,0.00018,0.0003,3e-05,1e-05,1,20.0
2383,0.0,-2e-05,-2e-05,-6e-05,0.00018,0.0003,3e-05,1e-05,1,20.0
2384,0.0,-2e-05,-2e-05,-6e-05,0.00018,0.0003,3e-05,1e-05,1,20.0
2385,0.0,-2e-05,-2e-05,-6e-05,0.00018,0.0003,3e-05,1e-05,1,20.0
2386,0.0,-2e-05,-2e-05,-6e-05,0.00018,0.0003,3e-05,1e-05,1,20.0
2388,0.0,-2e-05,-2e-05,-6e-05,0.00018,0.0003,3e-05,1e-05,1,20.0
2389,0.0,-2e-05,-2e-05,-6e-05,0.00018,0.0003,3e-05,1e-05,1,20.0
2390,0.0,-2e-05,-2e-05,-6e-05,0.00018,0.0003,3e-05,1e-05,1,20.0
2391,0.0,-2e-05,-2e-05,-6e-05,0.00018,0.0003,3e-05,1e-05,1,20.0
2392,0.0,-2e-05,-2e-05,-6e-05,0.00018,0.0003,3e-05,1e-05,1,20.0
2393,0.0,-2e-05,-2e-05,-6e-05,0.00018,0.0003,3e-05,1e-05,1,20.0
2394,0.0,-2e-05,-2e-05,-6e-05,0.00018,0.0003,3e-05,1e-05,1,20.0
2395,0.0,-2e-05,-2e-05,-6e-05,0.00018,0.0003,3e-05,1e-05,1,20.0
2396,0.0,-2e-05,-2e-05,-6e-05,0.00018,0.0003,3e-05,1e-05,1,20.0
2397,0.0,-2e-05,-2e-05,-6e-05,0.00018,0.0003,3e-05,1e-05,1,20.0
2398,0.0,-2e-05,-2e-05,-6e-05,0.00018,0.0003,3e-05,1e-05,1,20.0
2399,0.0,-2e-05,-2e-05,-6e-05,0.00018,0.0003,3e-05,1e-05,1,20.0
2400,0.0,-2e-05,-2e-05,-6e-05,0.00018,0.0003,3e-05,1e-05,1,20.0
2401,0.0,-2e-05,-2e-05,-6e-05,0.00018,0.0003,3e-05,1e-05,1,20.0
2402,0.0,0.0,0.0,-7e-05,-3e-05,1e-05,0.0,-2e-05,1,20.0
2403,0.0,0.0,0.0,-7e-05,-3e-05,1e-05,0.0,-2e-05,1,20.0
2404,0.0,0.0,1e-05,8e-05,-4e-05,-0.00011,2e-05,-1e-05,1,20.0
2405,0.0,0.0,1e-05,8e-05,-4e-05,-0.00011,2e-05,-1e-05,1,20.0
2406,0.0,0.0,1e-05,8e-05,-4e-05,-0.00011,2e-05,-1e-05,1,20.0
2407,0.0,0.0,1e-05,8e-05,-4e-05,-0.00011,2e-05,-1e-05,1,20.0
2408,0.0,0.0,1e-05,8e-05,-4e-05,-0.00011,2e-05,-1e-05,1,20.0
2409,0.0,0.0,1e-05,8e-05,-4e-05,-0.00011,2e-05,-1e-05,1,20.0
2410,0.0,0.0,1e-05,8e-05,-4e-05,-0.00011,2e-05,-1e-05,1,20.0
2411,0.0,0.0,1e-05,8e-05,-4e-05,-0.00011,2e-05,-1e-05,1,20.0
2412,0.0,0.0,1e-05,8e-05,-4e-05,-0.00011,2e-05,-1e-05,1,20.0
2413,0.0,0.0,1e-05,8e-05,-4e-05,-0.00011,2e-05,-1e-05,1,20.0
2414,0.0,0.0,1e-05,8e-05,-4e-05,-0.00011,2e-05,-1e-05,1,20.0
2415,0.0,0.0,1e-05,8e-05,-4e-05,-0.00011,2e-05,-1e-05,1,20.0
2416,0.0,0.0,1e-05,8e-05,-4e-05,-0.00011,2e-05,-1e-05,1,20.0
2417,1e-05,0.0,-1e-05,-0.0001,0.0,-0.00015,-3e-05,2e-05,1,20.0
2418,1e-05,0.0,-1e-05,-0.0001,0.0,-0.00015,-3e-05,2e-05,1,20.0
2419,1e-05,0.0,-1e-05,-0.0001,0.0,-0.00015,-3e-05,2e-05,1,20.0
2420,1e-05,0.0,-1e-05,-0.0001,0.0,-0.00015,-3e-05,2e-05,1,20.0
2421,1e-05,0.0,-1e-05,-0.0001,0.0,-0.00015,-3e-05,2e-05,1,20.0
2422,1e-05,0.0,-1e-05,-0.0001,0.0,-0.00015,-3e-05,2e-05,1,20.0
2423,-1e-05,-4e-05,-5e-05,9e-05,-2e-05,-5e-05,0.0,0.0,1,20.0
2424,-1e-05,-4e-05,-6e-05,-0.00012,1e-05,-6e-05,-3e-05,0.0,1,20.0
2425,-1e-05,-4e-05,-6e-05,-0.00012,1e-05,-6e-05,-3e-05,0.0,1,20.0
2426,-1e-05,-4e-05,-6e-05,-0.00012,1e-05,-6e-05,-3e-05,0.0,1,20.0
2427,-1e-05,-4e-05,-6e-05,-0.00012,1e-05,-6e-05,-3e-05,0.0,1,20.0
2428,-1e-05,-4e-05,-6e-05,-0.00012,1e-05,-6e-05,-3e-05,0.0,1,20.0
2429,-1e-05,-4e-05,-6e-05,-0.00012,1e-05,-6e-05,-3e-05,0.0,1,20.0
2430,-1e-05,-4e-05,-6e-05,-0.00012,1e-05,-6e-05,-3e-05,0.0,1,20.0
2431,-1e-05,-4e-05,-6e-05,-0.00012,1e-05,-6e-05,-3e-05,0.0,1,20.0
2432,-1e-05,-4e-05,-6e-05,-0.00012,1e-05,-6e-05,-3e-05,0.0,1,20.0
2433,-1e-05,-4e-05,-6e-05,-0.00012,1e-05,-6e-05,-3e-05,0.0,1,20.0
2434,-1e-05,-4e-05,-6e-05,-0.00012,1e-05,-6e-05,-3e-05,0.0,1,20.0
2435,-1e-05,-4e-05,-6e-05,-0.00012,1e-05,-6e-05,-3e-05,0.0,1,20.0
2436,-1e-05,-4e-05,-6e-05,-0.00012,1e-05,-6e-05,-3e-05,0.0,1,20.0
2438,-1e-05,-4e-05,-6e-05,-0.00012,1e-05,-6e-05,-3e-05,0.0,1,20.0
2439,-1e-05,-4e-05,-6e-05,-0.00012,1e-05,-6e-05,-3e-05,0.0,1,20.0
2440,-1e-05,-2e-05,1e-05,6e-05,2e-05,2e-05,1e-05,-1e-05,1,20.0
2441,1e-05,1e-05,-2e-05,-5e-05,0.0,-8e-05,-2e-05,-2e-05,1,20.0
2442,1e-05,1e-05,-2e-05,-5e-05,0.0,-8e-05,-2e-05,-2e-05,1,20.0
2443,1e-05,1e-05,-2e-05,-5e-05,0.0,-8e-05,-2e-05,-2e-05,1,20.0
2444,1e-05,1e-05,-2e-05,-5e-05,0.0,-8e-05,-2e-05,-2e-05,1,20.0
2445,1e-05,1e-05,-2e-05,-5e-05,0.0,-8e-05,-2e-05,-2e-05,1,20.0
2446,1e-05,1e-05,-2e-05,-5e-05,0.0,-8e-05,-2e-05,-2e-05,1,20.0
2447,1e-05,1e-05,-2e-05,-5e-05,0.0,-8e-05,-2e-05,-2e-05,1,20.0
2448,1e-05,1e-05,-2e-05,-5e-05,0.0,-8e-05,-2e-05,-2e-05,1,20.0
2449,1e-05,1e-05,-2e-05,-5e-05,0.0,-8e-05,-2e-05,-2e-05,1,20.0
2450,1e-05,1e-05,-2e-05,-5e-05,0.0,-8e-05,-2e-05,-2e-05,1,20.0
2451,1e-05,1e-05,-2e-05,-5e-05,0.0,-8e-05,-2e-05,-2e-05,1,20.0
2452,1e-05,1e-05,-2e-05,-5e-05,0.0,-8e-05,-2e-05,-2e-05,1,20.0
2453,1e-05,1e-05,-2e-05,-5e-05,0.0,-8e-05,-2e-05,-2e-05,1,20.0
2454,1e-05,1e-05,-2e-05,-5e-05,0.0,-8e-05,-2e-05,-2e-05,1,20.0
2455,1e-05,1e-05,-2e-05,-5e-05,0.0,-8e-05,-2e-05,-2e-05,1,20.0
2456,1e-05,1e-05,-2e-05,-5e-05,0.0,-8e-05,-2e-05,-2e-05,1,20.0
2457,1e-05,1e-05,-2e-05,-5e-05,0.0,-8e-05,-2e-05,-2e-05,1,20.0
2458,1e-05,1e-05,-2e-05,-5e-05,0.0,-8e-05,-2e-05,-2e-05,1,20.0
2459,1e-05,1e-05,-2e-05,-5e-05,0.0,-8e-05,-2e-05,-2e-05,1,20.0
2460,1e-05,1e-05,-2e-05,-5e-05,0.0,-8e-05,-2e-05,-2e-05,1,20.0
2461,1e-05,1e-05,-2e-05,-5e-05,0.0,-8e-05,-2e-05,-2e-05,1,20.0
2462,1e-05,1e-05,-2e-05,-5e-05,0.0,-8e-05,-2e-05,-2e-05,1,20.0
2463,-2e-05,0.0,-2e-05,-4e-05,8e-05,0.00011,1e-05,-2e-05,1,20.0
2464,-1e-05,2e-05,2e-05,6e-05,4e-05,-9e-05,-3e-05,-2e-05,1,20.0
2465,-1e-05,2e-05,2e-05,6e-05,4e-05,-9e-05,-3e-05,-2e-05,1,20.0
2466,-1e-05,2e-05,2e-05,6e-05,4e-05,-9e-05,-3e-05,-2e-05,1,20.0
2467,-1e-05,2e-05,2e-05,6e-05,4e-05,-9e-05,-3e-05,-2e-05,1,20.0
2468,-1e-05,2e-05,2e-05,6e-05,4e-05,-9e-05,-3e-05,-2e-05,1,20.0
2469,-1e-05,2e-05,2e-05,6e-05,4e-05,-9e-05,-3e-05,-2e-05,1,20.0
2470,-1e-05,2e-05,2e-05,6e-05,4e-05,-9e-05,-3e-05,-2e-05,1,20.0
2471,-1e-05,2e-05,2e-05,6e-05,4e-05,-9e-05,-3e-05,-2e-05,1,20.0
2472,-1e-05,2e-05,2e-05,6e-05,4e-05,-9e-05,-3e-05,-2e-05,1,20.0
2473,-1e-05,2e-05,2e-05,6e-05,4e-05,-9e-05,-3e-05,-2e-05,1,20.0
2474,-1e-05,2e-05,2e-05,6e-05,4e-05,-9e-05,-3e-05,-2e-05,1,20.0
2475,-1e-05,2e-05,2e-05,6e-05,4e-05,-9e-05,-3e-05,-2e-05,1,20.0
2476,-1e-05,2e-05,2e-05,6e-05,4e-05,-9e-05,-3e-05,-2e-05,1,20.0
2477,-3e-05,-4e-05,-2e-05,-0.00011,-6e-05,2e-05,-1e-05,-2e-05,1,20.0
2478,-3e-05,-4e-05,-2e-05,-0.00011,-6e-05,2e-05,-1e-05,-2e-05,1,20.0
2479,-3e-05,-4e-05,-2e-05,-0.00011,-6e-05,2e-05,-1e-05,-2e-05,1,20.0
2480,-3e-05,-4e-05,-2e-05,-0.00011,-6e-05,2e-05,-1e-05,-2e-05,1,20.0
2481,-3e-05,-4e-05,-2e-05,-0.00011,-6e-05,2e-05,-1e-05,-2e-05,1,20.0
2482,-3e-05,-4e-05,-2e-05,-0.00011,-6e-05,2e-05,-1e-05,-2e-05,1,20.0
2483,-3e-05,-4e-05,-2e-05,-0.00011,-6e-05,2e-05,-1e-05,-2e-05,1,20.0
2484,-2e-05,0.0,-3e-05,6e-05,-8e-05,2e-05,-1e-05,-1e-05,1,20.0
2485,-2e-05,0.0,-3e-05,6e-05,-8e-05,2e-05,-1e-05,-1e-05,1,20.0
2486,-2e-05,0.0,-3e-05,6e-05,-8e-05,2e-05,-1e-05,-1e-05,1,20.0
2488,-2e-05,0.0,-3e-05,6e-05,-8e-05,2e-05,-1e-05,-1e-05,1,20.0
2489,-2e-05,0.0,-3e-05,6e-05,-8e-05,2e-05,-1e-05,-1e-05,1,20.0
2490,-2e-05,0.0,-3e-05,6e-05,-8e-05,2e-05,-1e-05,-1e-05,1,20.0
2491,-2e-05,0.0,-3e-05,6e-05,-8e-05,2e-05,-1e-05,-1e-05,1,20.0
2493,-2e-05,0.0,-3e-05,6e-05,-8e-05,2e-05,-1e-05,-1e-05,1,20.0
2494,-2e-05,0.0,-3e-05,6e-05,-8e-05,2e-05,-1e-05,-1e-05,1,20.0
2495,-2e-05,0.0,-3e-05,6e-05,-8e-05,2e-05,-1e-05,-1e-05,1,20.0
2496,-2e-05,0.0,-3e-05,6e-05,-8e-05,2e-05,-1e-05,-1e-05,1,20.0
2497,-2e-05,0.0,-3e-05,6e-05,-8e-05,2e-05,-1e-05,-1e-05,1,20.0
2498,-2e-05,0.0,-3e-05,6e-05,-8e-05,2e-05,-1e-05,-1e-05,1,20.0
2499,-2e-05,0.0,-3e-05,6e-05,-8e-05,2e-05,-1e-05,-1e-05,1,20.0
2500,-1e-05,-1e-05,0.0,-4e-05,-2e-05,8e-05,2e-05,0.0,1,20.0
2501,-2e-05,-4e-05,-1e-05,-5e-05,7e-05,9e-05,3e-05,1e-05,1,20.0
2502,-2e-05,-4e-05,-1e-05,-5e-05,7e-05,9e-05,3e-05,1e-05,1,20.0
2503,-2e-05,-4e-05,-1e-05,-5e-05,7e-05,9e-05,3e-05,1e-05,1,20.0
2504,-2e-05,-4e-05,-1e-05,-5e-05,7e-05,9e-05,3e-05,1e-05,1,20.0
2505,-2e-05,-4e-05,-1e-05,-5e-05,7e-05,9e-05,3e-05,1e-05,1,20.0
2506,-2e-05,-4e-05,-1e-05,-5e-05,7e-05,9e-05,3e-05,1e-05,1,20.0
2507,-2e-05,-4e-05,-1e-05,-5e-05,7e-05,9e-05,3e-05,1e-05,1,20.0
2508,-2e-05,-4e-05,-1e-05,-5e-05,7e-05,9e-05,3e-05,1e-05,1,20.0
2509,-2e-05,-4e-05,-1e-05,-5e-05,7e-05,9e-05,3e-05,1e-05,1,20.0
2510,-2e-05,-4e-05,-1e-05,-5e-05,7e-05,9e-05,3e-05,1e-05,1,20.0
2511,-2e-05,-4e-05,-1e-05,-5e-05,7e-05,9e-05,3e-05,1e-05,1,20.0
2512,-2e-05,-4e-05,-1e-05,-5e-05,7e-05,9e-05,3e-05,1e-05,1,20.0
2513,-2e-05,-4e-05,-1e-05,-5e-05,7e-05,9e-05,3e-05,1e-05,1,20.0
2514,-2e-05,-4e-05,-1e-05,-5e-05,7e-05,9e-05,3e-05,1e-05,1,20.0
2515,-2e-05,-4e-05,-1e-05,-5e-05,7e-05,9e-05,3e-05,1e-05,1,20.0
2516,-2e-05,-4e-05,-1e-05,-5e-05,7e-05,9e-05,3e-05,1e-05,1,20.0
2517,-2e-05,-4e-05,-1e-05,-5e-05,7e-05,9e-05,3e-05,1e-05,1,20.0
2518,-2e-05,-4e-05,-1e-05,-5e-05,7e-05,9e-05,3e-05,1e-05,1,20.0
2519,-2e-05,-4e-05,-1e-05,-5e-05,7e-05,9e-05,3e-05,1e-05,1,20.0
2520,-2e-05,-4e-05,-1e-05,-5e-05,7e-05,9e-05,3e-05,1e-05,1,20.0
2521,-2e-05,-4e-05,-1e-05,-5e-05,7e-05,9e-05,3e-05,1e-05,1,20.0
2522,-1e-05,-1e-05,-2e-05,-9e-05,3e-05,4e-05,0.0,-2e-05,1,20.0
2523,-1e-05,-1e-05,-2e-05,-9e-05,3e-05,4e-05,0.0,-2e-05,1,20.0
2524,0.0,3e-05,1e-05,-6e-05,-3e-05,-2e-05,-2e-05,-3e-05,1,20.0
2525,0.0,3e-05,1e-05,-6e-05,-3e-05,-2e-05,-2e-05,-3e-05,1,20.0
2526,0.0,3e-05,1e-05,-6e-05,-3e-05,-2e-05,-2e-05,-3e-05,1,20.0
2527,0.0,3e-05,1e-05,-6e-05,-3e-05,-2e-05,-2e-05,-3e-05,1,20.0
2528,0.0,3e-05,1e-05,-6e-05,-3e-05,-2e-05,-2e-05,-3e-05,1,20.0
2529,0.0,3e-05,1e-05,-6e-05,-3e-05,-2e-05,-2e-05,-3e-05,1,20.0
2530,0.0,3e-05,1e-05,-6e-05,-3e-05,-2e-05,-2e-05,-3e-05,1,20.0
2531,0.0,3e-05,1e-05,-6e-05,-3e-05,-2e-05,-2e-05,-3e-05,1,20.0
2532,0.0,3e-05,1e-05,-6e-05,-3e-05,-2e-05,-2e-05,-3e-05,1,20.0
2533,0.0,3e-05,1e-05,-6e-05,-3e-05,-2e-05,-2e-05,-3e-05,1,20.0
2534,0.0,3e-05,1e-05,-6e-05,-3e-05,-2e-05,-2e-05,-3e-05,1,20.0
2535,0.0,3e-05,1e-05,-6e-05,-3e-05,-2e-05,-2e-05,-3e-05,1,20.0
2536,0.0,-3e-05,-6e-05,2e-05,-1e-05,0.00013,-1e-05,0.0,1,20.0
2538,0.0,-3e-05,-6e-05,2e-05,-1e-05,0.00013,-1e-05,0.0,1,20.0
2539,0.0,-3e-05,-6e-05,2e-05,-1e-05,0.00013,-1e-05,0.0,1,20.0
2540,0.0,-3e-05,-6e-05,2e-05,-1e-05,0.00013,-1e-05,0.0,1,20.0
2541,0.0,-3e-05,-6e-05,2e-05,-1e-05,0.00013,-1e-05,0.0,1,20.0
2542,0.0,-3e-05,-6e-05,2e-05,-1e-05,0.00013,-1e-05,0.0,1,20.0
2543,0.0,-3e-05,-6e-05,2e-05,-1e-05,0.00013,-1e-05,0.0,1,20.0
2544,0.0,-3e-05,-6e-05,2e-05,-1e-05,0.00013,-1e-05,0.0,1,20.0
2545,0.0,1e-05,3e-05,0.0,-5e-05,0.0,-1e-05,-1e-05,1,20.0
2546,0.0,1e-05,3e-05,0.0,-5e-05,0.0,-1e-05,-1e-05,1,20.0
2547,0.0,1e-05,3e-05,0.0,-5e-05,0.0,-1e-05,-1e-05,1,20.0
2548,0.0,1e-05,3e-05,0.0,-5e-05,0.0,-1e-05,-1e-05,1,20.0
2549,0.0,1e-05,3e-05,0.0,-5e-05,0.0,-1e-05,-1e-05,1,20.0
2550,0.0,1e-05,3e-05,0.0,-5e-05,0.0,-1e-05,-1e-05,1,20.0
2551,0.0,1e-05,3e-05,0.0,-5e-05,0.0,-1e-05,-1e-05,1,20.0
2552,0.0,1e-05,3e-05,0.0,-5e-05,0.0,-1e-05,-1e-05,1,20.0
2553,0.0,1e-05,3e-05,0.0,-5e-05,0.0,-1e-05,-1e-05,1,20.0
2554,0.0,1e-05,3e-05,0.0,-5e-05,0.0,-1e-05,-1e-05,1,20.0
2555,0.0,1e-05,3e-05,0.0,-5e-05,0.0,-1e-05,-1e-05,1,20.0
2556,0.0,1e-05,3e-05,0.0,-5e-05,0.0,-1e-05,-1e-05,1,20.0
2557,0.0,1e-05,3e-05,0.0,-5e-05,0.0,-1e-05,-1e-05,1,20.0
2558,0.0,1e-05,3e-05,0.0,-5e-05,0.0,-1e-05,-1e-05,1,20.0
2559,0.0,1e-05,3e-05,0.0,-5e-05,0.0,-1e-05,-1e-05,1,20.0
2560,-1e-05,0.0,-5e-05,-0.00013,-0.00017,-0.00021,-3e-05,-2e-05,1,20.0
2561,-3e-05,-5e-05,-4e-05,-3e-05,-3e-05,-1e-05,-4e-05,-2e-05,1,20.0
2562,-3e-05,-5e-05,-4e-05,-3e-05,-3e-05,-1e-05,-4e-05,-2e-05,1,20.0
2563,-3e-05,-5e-05,-4e-05,-3e-05,-3e-05,-1e-05,-4e-05,-2e-05,1,20.0
2564,-3e-05,-5e-05,-4e-05,-3e-05,-3e-05,-1e-05,-4e-05,-2e-05,1,20.0
2565,-3e-05,-5e-05,-4e-05,-3e-05,-3e-05,-1e-05,-4e-05,-2e-05,1,20.0
2566,-3e-05,-5e-05,-4e-05,-3e-05,-3e-05,-1e-05,-4e-05,-2e-05,1,20.0
2567,-3e-05,-5e-05,-4e-05,-3e-05,-3e-05,-1e-05,-4e-05,-2e-05,1,20.0
2568,-3e-05,-5e-05,-4e-05,-3e-05,-3e-05,-1e-05,-4e-05,-2e-05,1,20.0
2569,-3e-05,-5e-05,-4e-05,-3e-05,-3e-05,-1e-05,-4e-05,-2e-05,1,20.0
2570,-3e-05,-5e-05,-4e-05,-3e-05,-3e-05,-1e-05,-4e-05,-2e-05,1,20.0
2571,-3e-05,-5e-05,-4e-05,-3e-05,-3e-05,-1e-05,-4e-05,-2e-05,1,20.0
2572,-3e-05,-5e-05,-4e-05,-3e-05,-3e-05,-1e-05,-4e-05,-2e-05,1,20.0
2573,-3e-05,-5e-05,-4e-05,-3e-05,-3e-05,-1e-05,-4e-05,-2e-05,1,20.0
2574,-3e-05,-5e-05,-4e-05,-3e-05,-3e-05,-1e-05,-4e-05,-2e-05,1,20.0
2575,-3e-05,-5e-05,-4e-05,-3e-05,-3e-05,-1e-05,-4e-05,-2e-05,1,20.0
2576,-3e-05,-5e-05,-4e-05,-3e-05,-3e-05,-1e-05,-4e-05,-2e-05,1,20.0
2577,-3e-05,-5e-05,-4e-05,-3e-05,-3e-05,-1e-05,-4e-05,-2e-05,1,20.0
2578,-3e-05,-5e-05,-4e-05,-3e-05,-3e-05,-1e-05,-4e-05,-2e-05,1,20.0
2579,-3e-05,-5e-05,-4e-05,-3e-05,-3e-05,-1e-05,-4e-05,-2e-05,1,20.0
2580,-3e-05,-5e-05,-4e-05,-3e-05,-3e-05,-1e-05,-4e-05,-2e-05,1,20.0
2581,-3e-05,-5e-05,-4e-05,-3e-05,-3e-05,-1e-05,-4e-05,-2e-05,1,20.0
2582,0.0,-1e-05,1e-05,9e-05,4e-05,7e-05,-1e-05,0.0,1,20.0
2583,-1e-05,-3e-05,-2e-05,-0.00028,-5e-05,-7e-05,0.0,0.0,1,20.0
2584,-1e-05,-1e-05,-2e-05,-5e-05,-0.0001,-0.0001,-2e-05,-2e-05,1,20.0
2585,-1e-05,-1e-05,-2e-05,-5e-05,-0.0001,-0.0001,-2e-05,-2e-05,1,20.0
2586,-1e-05,-1e-05,-2e-05,-5e-05,-0.0001,-0.0001,-2e-05,-2e-05,1,20.0
2588,-1e-05,-1e-05,-2e-05,-5e-05,-0.0001,-0.0001,-2e-05,-2e-05,1,20.0
2589,-1e-05,-1e-05,-2e-05,-5e-05,-0.0001,-0.0001,-2e-05,-2e-05,1,20.0
2590,-1e-05,-1e-05,-2e-05,-5e-05,-0.0001,-0.0001,-2e-05,-2e-05,1,20.0
2591,-1e-05,-1e-05,-2e-05,-5e-05,-0.0001,-0.0001,-2e-05,-2e-05,1,20.0
2592,-1e-05,-1e-05,-2e-05,-5e-05,-0.0001,-0.0001,-2e-05,-2e-05,1,20.0
2593,-1e-05,-1e-05,-2e-05,-5e-05,-0.0001,-0.0001,-2e-05,-2e-05,1,20.0
2594,-1e-05,-1e-05,-2e-05,-5e-05,-0.0001,-0.0001,-2e-05,-2e-05,1,20.0
2595,-1e-05,-1e-05,-2e-05,-5e-05,-0.0001,-0.0001,-2e-05,-2e-05,1,20.0
2596,0.0,1e-05,1e-05,1e-05,-3e-05,-2e-05,-3e-05,-2e-05,1,20.0
2597,-1e-05,-3e-05,0.0,5e-05,-1e-05,-7e-05,-2e-05,-1e-05,1,20.0
2598,-1e-05,-3e-05,0.0,5e-05,-1e-05,-7e-05,-2e-05,-1e-05,1,20.0
2599,-1e-05,-3e-05,0.0,5e-05,-1e-05,-7e-05,-2e-05,-1e-05,1,20.0
2600,-1e-05,-3e-05,0.0,5e-05,-1e-05,-7e-05,-2e-05,-1e-05,1,20.0
2601,-1e-05,-3e-05,0.0,5e-05,-1e-05,-7e-05,-2e-05,-1e-05,1,20.0
2602,-1e-05,-3e-05,0.0,5e-05,-1e-05,-7e-05,-2e-05,-1e-05,1,20.0
2603,-1e-05,-3e-05,0.0,5e-05,-1e-05,-7e-05,-2e-05,-1e-05,1,20.0
2604,-1e-05,-3e-05,0.0,5e-05,-1e-05,-7e-05,-2e-05,-1e-05,1,20.0
2605,0.0,-1e-05,0.0,1e-05,-1e-05,-3e-05,1e-05,0.0,1,20.0
2606,0.0,-1e-05,0.0,1e-05,-1e-05,-3e-05,1e-05,0.0,1,20.0
2607,0.0,-1e-05,0.0,1e-05,-1e-05,-3e-05,1e-05,0.0,1,20.0
2608,0.0,-1e-05,0.0,1e-05,-1e-05,-3e-05,1e-05,0.0,1,20.0
2609,0.0,-1e-05,0.0,1e-05,-1e-05,-3e-05,1e-05,0.0,1,20.0
2610,0.0,-1e-05,0.0,1e-05,-1e-05,-3e-05,1e-05,0.0,1,20.0
2611,0.0,-1e-05,0.0,1e-05,-1e-05,-3e-05,1e-05,0.0,1,20.0
2612,0.0,-1e-05,0.0,1e-05,-1e-05,-3e-05,1e-05,0.0,1,20.0
2613,0.0,-1e-05,0.0,1e-05,-1e-05,-3e-05,1e-05,0.0,1,20.0
2614,0.0,-1e-05,0.0,1e-05,-1e-05,-3e-05,1e-05,0.0,1,20.0
2615,0.0,-1e-05,0.0,1e-05,-1e-05,-3e-05,1e-05,0.0,1,20.0
2616,0.0,-1e-05,0.0,1e-05,-1e-05,-3e-05,1e-05,0.0,1,20.0
2617,0.0,-1e-05,0.0,1e-05,-1e-05,-3e-05,1e-05,0.0,1,20.0
2618,0.0,-1e-05,0.0,1e-05,-1e-05,-3e-05,1e-05,0.0,1,20.0
2619,0.0,-1e-05,0.0,1e-05,-1e-05,-3e-05,1e-05,0.0,1,20.0
2620,0.0,0.0,-5e-05,-1e-05,-1e-05,-0.00016,-3e-05,-4e-05,1,20.0
2621,-3e-05,-3e-05,-4e-05,-0.00013,-6e-05,4e-05,3e-05,1e-05,1,20.0
2622,-1e-05,1e-05,3e-05,5e-05,-2e-05,5e-05,-1e-05,-1e-05,1,20.0
2623,-1e-05,1e-05,3e-05,5e-05,-2e-05,5e-05,-1e-05,-1e-05,1,20.0
2624,-1e-05,1e-05,3e-05,5e-05,-2e-05,5e-05,-1e-05,-1e-05,1,20.0
2625,-1e-05,1e-05,3e-05,5e-05,-2e-05,5e-05,-1e-05,-1e-05,1,20.0
2626,-1e-05,1e-05,3e-05,5e-05,-2e-05,5e-05,-1e-05,-1e-05,1,20.0
2627,-1e-05,1e-05,3e-05,5e-05,-2e-05,5e-05,-1e-05,-1e-05,1,20.0
2628,-1e-05,1e-05,3e-05,5e-05,-2e-05,5e-05,-1e-05,-1e-05,1,20.0
2629,-1e-05,1e-05,3e-05,5e-05,-2e-05,5e-05,-1e-05,-1e-05,1,20.0
2630,-1e-05,1e-05,3e-05,5e-05,-2e-05,5e-05,-1e-05,-1e-05,1,20.0
2631,-1e-05,1e-05,3e-05,5e-05,-2e-05,5e-05,-1e-05,-1e-05,1,20.0
2632,-1e-05,1e-05,3e-05,5e-05,-2e-05,5e-05,-1e-05,-1e-05,1,20.0
2633,-1e-05,1e-05,3e-05,5e-05,-2e-05,5e-05,-1e-05,-1e-05,1,20.0
2634,-1e-05,1e-05,3e-05,5e-05,-2e-05,5e-05,-1e-05,-1e-05,1,20.0
2635,-1e-05,1e-05,3e-05,5e-05,-2e-05,5e-05,-1e-05,-1e-05,1,20.0
2636,-1e-05,1e-05,3e-05,5e-05,-2e-05,5e-05,-1e-05,-1e-05,1,20.0
2638,-1e-05,1e-05,3e-05,5e-05,-2e-05,5e-05,-1e-05,-1e-05,1,20.0
2639,-1e-05,1e-05,3e-05,5e-05,-2e-05,5e-05,-1e-05,-1e-05,1,20.0
2640,-1e-05,1e-05,3e-05,5e-05,-2e-05,5e-05,-1e-05,-1e-05,1,20.0
2641,-1e-05,1e-05,3e-05,5e-05,-2e-05,5e-05,-1e-05,-1e-05,1,20.0
2642,-2e-05,-2e-05,-5e-05,-4e-05,6e-05,0.00011,2e-05,0.0,1,20.0
2643,-2e-05,-2e-05,-5e-05,-4e-05,6e-05,0.00011,2e-05,0.0,1,20.0
2644,0.0,-1e-05,-4e-05,-5e-05,-4e-05,-0.0001,-2e-05,-2e-05,1,20.0
2645,0.0,-1e-05,-4e-05,-5e-05,-4e-05,-0.0001,-2e-05,-2e-05,1,20.0
2646,0.0,-1e-05,-4e-05,-5e-05,-4e-05,-0.0001,-2e-05,-2e-05,1,20.0
2647,0.0,-1e-05,-4e-05,-5e-05,-4e-05,-0.0001,-2e-05,-2e-05,1,20.0
2648,0.0,-1e-05,-4e-05,-5e-05,-4e-05,-0.0001,-2e-05,-2e-05,1,20.0
2649,0.0,-1e-05,-4e-05,-5e-05,-4e-05,-0.0001,-2e-05,-2e-05,1,20.0
2650,0.0,-1e-05,-4e-05,-5e-05,-4e-05,-0.0001,-2e-05,-2e-05,1,20.0
2651,0.0,-1e-05,-4e-05,-5e-05,-4e-05,-0.0001,-2e-05,-2e-05,1,20.0
2652,0.0,-1e-05,-4e-05,-5e-05,-4e-05,-0.0001,-2e-05,-2e-05,1,20.0
2653,0.0,-1e-05,-4e-05,-5e-05,-4e-05,-0.0001,-2e-05,-2e-05,1,20.0
2654,0.0,-1e-05,-4e-05,-5e-05,-4e-05,-0.0001,-2e-05,-2e-05,1,20.0
2655,0.0,-1e-05,-4e-05,-5e-05,-4e-05,-0.0001,-2e-05,-2e-05,1,20.0
2656,-1e-05,0.0,3e-05,7e-05,1e-05,-4e-05,-3e-05,0.0,1,20.0
2657,-1e-05,0.0,3e-05,7e-05,1e-05,-4e-05,-3e-05,0.0,1,20.0
2658,-1e-05,0.0,3e-05,7e-05,1e-05,-4e-05,-3e-05,0.0,1,20.0
2659,-1e-05,0.0,3e-05,7e-05,1e-05,-4e-05,-3e-05,0.0,1,20.0
2660,-1e-05,0.0,3e-05,7e-05,1e-05,-4e-05,-3e-05,0.0,1,20.0
2661,-1e-05,0.0,3e-05,7e-05,1e-05,-4e-05,-3e-05,0.0,1,20.0
2662,-1e-05,0.0,3e-05,7e-05,1e-05,-4e-05,-3e-05,0.0,1,20.0
2663,-1e-05,0.0,3e-05,7e-05,1e-05,-4e-05,-3e-05,0.0,1,20.0
2664,-1e-05,0.0,3e-05,7e-05,1e-05,-4e-05,-3e-05,0.0,1,20.0
2665,-2e-05,-1e-05,3e-05,-0.00013,-1e-05,7e-05,3e-05,-1e-05,1,20.0
2666,-2e-05,-1e-05,3e-05,-0.00013,-1e-05,7e-05,3e-05,-1e-05,1,20.0
2667,-2e-05,-1e-05,3e-05,-0.00013,-1e-05,7e-05,3e-05,-1e-05,1,20.0
2668,-2e-05,-1e-05,3e-05,-0.00013,-1e-05,7e-05,3e-05,-1e-05,1,20.0
2669,-2e-05,-1e-05,3e-05,-0.00013,-1e-05,7e-05,3e-05,-1e-05,1,20.0
2670,-2e-05,-1e-05,3e-05,-0.00013,-1e-05,7e-05,3e-05,-1e-05,1,20.0
2671,-2e-05,-1e-05,3e-05,-0.00013,-1e-05,7e-05,3e-05,-1e-05,1,20.0
2672,-2e-05,-1e-05,3e-05,-0.00013,-1e-05,7e-05,3e-05,-1e-05,1,20.0
2673,-2e-05,-1e-05,3e-05,-0.00013,-1e-05,7e-05,3e-05,-1e-05,1,20.0
2674,-2e-05,-1e-05,3e-05,-0.00013,-1e-05,7e-05,3e-05,-1e-05,1,20.0
2675,-2e-05,-1e-05,3e-05,-0.00013,-1e-05,7e-05,3e-05,-1e-05,1,20.0
2676,-2e-05,-1e-05,3e-05,-0.00013,-1e-05,7e-05,3e-05,-1e-05,1,20.0
2677,-2e-05,-1e-05,3e-05,-0.00013,-1e-05,7e-05,3e-05,-1e-05,1,20.0
2678,-2e-05,-1e-05,3e-05,-0.00013,-1e-05,7e-05,3e-05,-1e-05,1,20.0
2679,-2e-05,-1e-05,3e-05,-0.00013,-1e-05,7e-05,3e-05,-1e-05,1,20.0
2680,0.0,0.0,5e-05,6e-05,1e-05,0.00012,2e-05,-1e-05,1,20.0
2681,1e-05,1e-05,5e-05,0.00011,-2e-05,-2e-05,-1e-05,0.0,1,20.0
2682,1e-05,1e-05,5e-05,0.00011,-2e-05,-2e-05,-1e-05,0.0,1,20.0
2683,1e-05,1e-05,5e-05,0.00011,-2e-05,-2e-05,-1e-05,0.0,1,20.0
2684,1e-05,1e-05,5e-05,0.00011,-2e-05,-2e-05,-1e-05,0.0,1,20.0
2685,1e-05,1e-05,5e-05,0.00011,-2e-05,-2e-05,-1e-05,0.0,1,20.0
2686,1e-05,1e-05,5e-05,0.00011,-2e-05,-2e-05,-1e-05,0.0,1,20.0
2688,1e-05,1e-05,5e-05,0.00011,-2e-05,-2e-05,-1e-05,0.0,1,20.0
2689,1e-05,1e-05,5e-05,0.00011,-2e-05,-2e-05,-1e-05,0.0,1,20.0
2690,1e-05,1e-05,5e-05,0.00011,-2e-05,-2e-05,-1e-05,0.0,1,20.0
2691,1e-05,1e-05,5e-05,0.00011,-2e-05,-2e-05,-1e-05,0.0,1,20.0
2693,1e-05,1e-05,5e-05,0.00011,-2e-05,-2e-05,-1e-05,0.0,1,20.0
2694,1e-05,1e-05,5e-05,0.00011,-2e-05,-2e-05,-1e-05,0.0,1,20.0
2695,1e-05,1e-05,5e-05,0.00011,-2e-05,-2e-05,-1e-05,0.0,1,20.0
2696,1e-05,1e-05,5e-05,0.00011,-2e-05,-2e-05,-1e-05,0.0,1,20.0
2697,1e-05,1e-05,5e-05,0.00011,-2e-05,-2e-05,-1e-05,0.0,1,20.0
2698,1e-05,1e-05,5e-05,0.00011,-2e-05,-2e-05,-1e-05,0.0,1,20.0
2699,1e-05,1e-05,5e-05,0.00011,-2e-05,-2e-05,-1e-05,0.0,1,20.0
2700,1e-05,1e-05,5e-05,0.00011,-2e-05,-2e-05,-1e-05,0.0,1,20.0
2701,1e-05,1e-05,5e-05,0.00011,-2e-05,-2e-05,-1e-05,0.0,1,20.0
2702,-1e-05,1e-05,-2e-05,-0.0001,1e-05,8e-05,-2e-05,0.0,1,20.0
2703,-1e-05,1e-05,-2e-05,-0.0001,1e-05,8e-05,-2e-05,0.0,1,20.0
2704,-3e-05,-2e-05,1e-05,8e-05,6e-05,5e-05,-1e-05,0.0,1,20.0
2705,-3e-05,-2e-05,1e-05,8e-05,6e-05,5e-05,-1e-05,0.0,1,20.0
2706,-3e-05,-2e-05,1e-05,8e-05,6e-05,5e-05,-1e-05,0.0,1,20.0
2707,-3e-05,-2e-05,1e-05,8e-05,6e-05,5e-05,-1e-05,0.0,1,20.0
2708,-3e-05,-2e-05,1e-05,8e-05,6e-05,5e-05,-1e-05,0.0,1,20.0
2709,-3e-05,-2e-05,1e-05,8e-05,6e-05,5e-05,-1e-05,0.0,1,20.0
2710,-3e-05,-2e-05,1e-05,8e-05,6e-05,5e-05,-1e-05,0.0,1,20.0
2711,-3e-05,-2e-05,1e-05,8e-05,6e-05,5e-05,-1e-05,0.0,1,20.0
2712,-3e-05,-2e-05,1e-05,8e-05,6e-05,5e-05,-1e-05,0.0,1,20.0
2713,-3e-05,-2e-05,1e-05,8e-05,6e-05,5e-05,-1e-05,0.0,1,20.0
2714,-3e-05,-2e-05,1e-05,8e-05,6e-05,5e-05,-1e-05,0.0,1,20.0
2715,-3e-05,-2e-05,1e-05,8e-05,6e-05,5e-05,-1e-05,0.0,1,20.0
2716,-3e-05,-2e-05,-2e-05,1e-05,-4e-05,-8e-05,-5e-05,-2e-05,1,20.0
2717,-3e-05,-2e-05,-2e-05,1e-05,-4e-05,-8e-05,-5e-05,-2e-05,1,20.0
2718,-3e-05,-2e-05,-2e-05,1e-05,-4e-05,-8e-05,-5e-05,-2e-05,1,20.0
2719,-3e-05,-2e-05,-2e-05,1e-05,-4e-05,-8e-05,-5e-05,-2e-05,1,20.0
2720,-3e-05,-2e-05,-2e-05,1e-05,-4e-05,-8e-05,-5e-05,-2e-05,1,20.0
2721,-3e-05,-2e-05,-2e-05,1e-05,-4e-05,-8e-05,-5e-05,-2e-05,1,20.0
2722,-3e-05,-2e-05,-2e-05,1e-05,-4e-05,-8e-05,-5e-05,-2e-05,1,20.0
2723,-3e-05,-2e-05,-2e-05,1e-05,-4e-05,-8e-05,-5e-05,-2e-05,1,20.0
2724,-3e-05,-2e-05,-2e-05,1e-05,-4e-05,-8e-05,-5e-05,-2e-05,1,20.0
2725,-1e-05,-1e-05,-1e-05,5e-05,4e-05,0.00015,5e-05,-1e-05,1,20.0
2726,-1e-05,-1e-05,-1e-05,5e-05,4e-05,0.00015,5e-05,-1e-05,1,20.0
2727,-1e-05,-1e-05,-1e-05,5e-05,4e-05,0.00015,5e-05,-1e-05,1,20.0
2728,-1e-05,-1e-05,-1e-05,5e-05,4e-05,0.00015,5e-05,-1e-05,1,20.0
2729,-1e-05,-1e-05,-1e-05,5e-05,4e-05,0.00015,5e-05,-1e-05,1,20.0
2730,-1e-05,-1e-05,-1e-05,5e-05,4e-05,0.00015,5e-05,-1e-05,1,20.0
2731,-1e-05,-1e-05,-1e-05,5e-05,4e-05,0.00015,5e-05,-1e-05,1,20.0
2732,-1e-05,-1e-05,-1e-05,5e-05,4e-05,0.00015,5e-05,-1e-05,1,20.0
2733,-1e-05,-1e-05,-1e-05,5e-05,4e-05,0.00015,5e-05,-1e-05,1,20.0
2734,-1e-05,-1e-05,-1e-05,5e-05,4e-05,0.00015,5e-05,-1e-05,1,20.0
2735,-1e-05,-1e-05,-1e-05,5e-05,4e-05,0.00015,5e-05,-1e-05,1,20.0
2736,-1e-05,-1e-05,-1e-05,5e-05,4e-05,0.00015,5e-05,-1e-05,1,20.0
2738,-1e-05,-1e-05,-1e-05,5e-05,4e-05,0.00015,5e-05,-1e-05,1,20.0
2739,-1e-05,-1e-05,-1e-05,5e-05,4e-05,0.00015,5e-05,-1e-05,1,20.0
2740,0.0,2e-05,2e-05,2e-05,-6e-05,-9e-05,-2e-05,1e-05,1,20.0
2741,-3e-05,-1e-05,-3e-05,-2e-05,-1e-05,1e-05,2e-05,0.0,1,20.0
2742,-1e-05,-3e-05,-3e-05,-6e-05,-0.00015,-9e-05,-5e-05,-2e-05,1,20.0
2743,-1e-05,-3e-05,-3e-05,-6e-05,-0.00015,-9e-05,-5e-05,-2e-05,1,20.0
2744,-1e-05,-3e-05,-3e-05,-6e-05,-0.00015,-9e-05,-5e-05,-2e-05,1,20.0
2745,-1e-05,-3e-05,-3e-05,-6e-05,-0.00015,-9e-05,-5e-05,-2e-05,1,20.0
2746,-1e-05,-3e-05,-3e-05,-6e-05,-0.00015,-9e-05,-5e-05,-2e-05,1,20.0
2747,-1e-05,-3e-05,-3e-05,-6e-05,-0.00015,-9e-05,-5e-05,-2e-05,1,20.0
2748,-1e-05,-3e-05,-3e-05,-6e-05,-0.00015,-9e-05,-5e-05,-2e-05,1,20.0
2749,-1e-05,-3e-05,-3e-05,-6e-05,-0.00015,-9e-05,-5e-05,-2e-05,1,20.0
2750,-1e-05,-3e-05,-3e-05,-6e-05,-0.00015,-9e-05,-5e-05,-2e-05,1,20.0
2751,-1e-05,-3e-05,-3e-05,-6e-05,-0.00015,-9e-05,-5e-05,-2e-05,1,20.0
2752,-1e-05,-3e-05,-3e-05,-6e-05,-0.00015,-9e-05,-5e-05,-2e-05,1,20.0
2753,-1e-05,-3e-05,-3e-05,-6e-05,-0.00015,-9e-05,-5e-05,-2e-05,1,20.0
2754,-1e-05,-3e-05,-3e-05,-6e-05,-0.00015,-9e-05,-5e-05,-2e-05,1,20.0
2755,-1e-05,-3e-05,-3e-05,-6e-05,-0.00015,-9e-05,-5e-05,-2e-05,1,20.0
2756,-1e-05,-3e-05,-3e-05,-6e-05,-0.00015,-9e-05,-5e-05,-2e-05,1,20.0
2757,-1e-05,-3e-05,-3e-05,-6e-05,-0.00015,-9e-05,-5e-05,-2e-05,1,20.0
2758,-1e-05,-3e-05,-3e-05,-6e-05,-0.00015,-9e-05,-5e-05,-2e-05,1,20.0
2759,-1e-05,-3e-05,-3e-05,-6e-05,-0.00015,-9e-05,-5e-05,-2e-05,1,20.0
2760,-1e-05,-3e-05,-3e-05,-6e-05,-0.00015,-9e-05,-5e-05,-2e-05,1,20.0
2761,-1e-05,-3e-05,-3e-05,-6e-05,-0.00015,-9e-05,-5e-05,-2e-05,1,20.0
2762,-2e-05,-5e-05,-0.00013,-2e-05,3e-05,9e-05,3e-05,-3e-05,1,20.0
2763,-2e-05,-5e-05,-0.00013,-2e-05,3e-05,9e-05,3e-05,-3e-05,1,20.0
2764,-2e-05,0.0,5e-05,-3e-05,-3e-05,-0.00015,-6e-05,-2e-05,1,20.0
2765,-2e-05,-1e-05,-2e-05,-7e-05,-4e-05,0.0,2e-05,1e-05,1,20.0
2766,-2e-05,-1e-05,-2e-05,-7e-05,-4e-05,0.0,2e-05,1e-05,1,20.0
2767,-2e-05,-1e-05,-2e-05,-7e-05,-4e-05,0.0,2e-05,1e-05,1,20.0
2768,-2e-05,-1e-05,-2e-05,-7e-05,-4e-05,0.0,2e-05,1e-05,1,20.0
2769,-2e-05,-1e-05,-2e-05,-7e-05,-4e-05,0.0,2e-05,1e-05,1,20.0
2770,-2e-05,-1e-05,-2e-05,-7e-05,-4e-05,0.0,2e-05,1e-05,1,20.0
2771,-2e-05,-1e-05,-2e-05,-7e-05,-4e-05,0.0,2e-05,1e-05,1,20.0
2772,-2e-05,-1e-05,-2e-05,-7e-05,-4e-05,0.0,2e-05,1e-05,1,20.0
2773,-2e-05,-1e-05,-2e-05,-7e-05,-4e-05,0.0,2e-05,1e-05,1,20.0
2774,-2e-05,-1e-05,-2e-05,-7e-05,-4e-05,0.0,2e-05,1e-05,1,20.0
2775,-2e-05,-1e-05,-2e-05,-7e-05,-4e-05,0.0,2e-05,1e-05,1,20.0
2776,-1e-05,-3e-05,-6e-05,-0.0001,-0.0001,-0.00025,-5e-05,1e-05,1,20.0
2777,-1e-05,-3e-05,-6e-05,-0.0001,-0.0001,-0.00025,-5e-05,1e-05,1,20.0
2778,-1e-05,-3e-05,-6e-05,-0.0001,-0.0001,-0.00025,-5e-05,1e-05,1,20.0
2779,-1e-05,-3e-05,-6e-05,-0.0001,-0.0001,-0.00025,-5e-05,1e-05,1,20.0
2780,-1e-05,-3e-05,-6e-05,-0.0001,-0.0001,-0.00025,-5e-05,1e-05,1,20.0
2781,-1e-05,-3e-05,-6e-05,-0.0001,-0.0001,-0.00025,-5e-05,1e-05,1,20.0
2782,-1e-05,-3e-05,-6e-05,-0.0001,-0.0001,-0.00025,-5e-05,1e-05,1,20.0
2783,-1e-05,-3e-05,-6e-05,-0.0001,-0.0001,-0.00025,-5e-05,1e-05,1,20.0
2784,-1e-05,-3e-05,-6e-05,-0.0001,-0.0001,-0.00025,-5e-05,1e-05,1,20.0
2785,-3e-05,0.0,0.0,4e-05,0.0,-5e-05,-3e-05,0.0,1,20.0
2786,-3e-05,0.0,0.0,4e-05,0.0,-5e-05,-3e-05,0.0,1,20.0
2788,-3e-05,0.0,0.0,4e-05,0.0,-5e-05,-3e-05,0.0,1,20.0
2789,-3e-05,0.0,0.0,4e-05,0.0,-5e-05,-3e-05,0.0,1,20.0
2790,-3e-05,0.0,0.0,4e-05,0.0,-5e-05,-3e-05,0.0,1,20.0
2791,-3e-05,0.0,0.0,4e-05,0.0,-5e-05,-3e-05,0.0,1,20.0
2792,-3e-05,0.0,0.0,4e-05,0.0,-5e-05,-3e-05,0.0,1,20.0
2793,-3e-05,0.0,0.0,4e-05,0.0,-5e-05,-3e-05,0.0,1,20.0
2794,-3e-05,0.0,0.0,4e-05,0.0,-5e-05,-3e-05,0.0,1,20.0
2795,-3e-05,0.0,0.0,4e-05,0.0,-5e-05,-3e-05,0.0,1,20.0
2796,-3e-05,0.0,0.0,4e-05,0.0,-5e-05,-3e-05,0.0,1,20.0
2797,-3e-05,0.0,0.0,4e-05,0.0,-5e-05,-3e-05,0.0,1,20.0
2798,-3e-05,0.0,0.0,4e-05,0.0,-5e-05,-3e-05,0.0,1,20.0
2799,-3e-05,0.0,0.0,4e-05,0.0,-5e-05,-3e-05,0.0,1,20.0
2800,-1e-05,0.0,-2e-05,-3e-05,5e-05,0.00015,1e-05,1e-05,1,20.0
2801,0.0,-3e-05,-9e-05,-0.00016,0.0,0.0001,0.0,-2e-05,1,20.0
2802,0.0,-3e-05,-9e-05,-0.00016,0.0,0.0001,0.0,-2e-05,1,20.0
2803,0.0,-3e-05,-9e-05,-0.00016,0.0,0.0001,0.0,-2e-05,1,20.0
2804,0.0,-3e-05,-9e-05,-0.00016,0.0,0.0001,0.0,-2e-05,1,20.0
2805,0.0,-3e-05,-9e-05,-0.00016,0.0,0.0001,0.0,-2e-05,1,20.0
2806,0.0,-3e-05,-9e-05,-0.00016,0.0,0.0001,0.0,-2e-05,1,20.0
2807,0.0,-3e-05,-9e-05,-0.00016,0.0,0.0001,0.0,-2e-05,1,20.0
2808,0.0,-3e-05,-9e-05,-0.00016,0.0,0.0001,0.0,-2e-05,1,20.0
2809,0.0,-3e-05,-9e-05,-0.00016,0.0,0.0001,0.0,-2e-05,1,20.0
2810,0.0,-3e-05,-9e-05,-0.00016,0.0,0.0001,0.0,-2e-05,1,20.0
2811,0.0,-3e-05,-9e-05,-0.00016,0.0,0.0001,0.0,-2e-05,1,20.0
2812,0.0,-3e-05,-9e-05,-0.00016,0.0,0.0001,0.0,-2e-05,1,20.0
2813,0.0,-3e-05,-9e-05,-0.00016,0.0,0.0001,0.0,-2e-05,1,20.0
2814,0.0,-3e-05,-9e-05,-0.00016,0.0,0.0001,0.0,-2e-05,1,20.0
2815,0.0,-3e-05,-9e-05,-0.00016,0.0,0.0001,0.0,-2e-05,1,20.0
2816,0.0,-3e-05,-9e-05,-0.00016,0.0,0.0001,0.0,-2e-05,1,20.0
2817,0.0,-3e-05,-9e-05,-0.00016,0.0,0.0001,0.0,-2e-05,1,20.0
2818,0.0,-3e-05,-9e-05,-0.00016,0.0,0.0001,0.0,-2e-05,1,20.0
2819,0.0,-3e-05,-9e-05,-0.00016,0.0,0.0001,0.0,-2e-05,1,20.0
2820,0.0,-3e-05,-9e-05,-0.00016,0.0,0.0001,0.0,-2e-05,1,20.0
2821,0.0,-3e-05,-9e-05,-0.00016,0.0,0.0001,0.0,-2e-05,1,20.0
2822,0.0,-2e-05,-1e-05,0.0,-6e-05,5e-05,1e-05,-1e-05,1,20.0
2823,0.0,-2e-05,-1e-05,0.0,-6e-05,5e-05,1e-05,-1e-05,1,20.0
2824,-1e-05,1e-05,2e-05,3e-05,-0.00016,-0.00015,-3e-05,-1e-05,1,20.0
2825,-1e-05,1e-05,2e-05,3e-05,-0.00016,-0.00015,-3e-05,-1e-05,1,20.0
2826,-1e-05,1e-05,2e-05,3e-05,-0.00016,-0.00015,-3e-05,-1e-05,1,20.0
2827,-1e-05,1e-05,2e-05,3e-05,-0.00016,-0.00015,-3e-05,-1e-05,1,20.0
2828,-1e-05,1e-05,2e-05,3e-05,-0.00016,-0.00015,-3e-05,-1e-05,1,20.0
2829,-1e-05,1e-05,2e-05,3e-05,-0.00016,-0.00015,-3e-05,-1e-05,1,20.0
2830,-1e-05,1e-05,2e-05,3e-05,-0.00016,-0.00015,-3e-05,-1e-05,1,20.0
2831,-1e-05,1e-05,2e-05,3e-05,-0.00016,-0.00015,-3e-05,-1e-05,1,20.0
2832,-1e-05,1e-05,2e-05,3e-05,-0.00016,-0.00015,-3e-05,-1e-05,1,20.0
2833,-1e-05,1e-05,2e-05,3e-05,-0.00016,-0.00015,-3e-05,-1e-05,1,20.0
2834,-1e-05,1e-05,2e-05,3e-05,-0.00016,-0.00015,-3e-05,-1e-05,1,20.0
2835,-1e-05,1e-05,2e-05,3e-05,-0.00016,-0.00015,-3e-05,-1e-05,1,20.0
2836,-1e-05,0.0,-2e-05,3e-05,2e-05,-1e-05,-1e-05,-1e-05,1,20.0
2838,-1e-05,0.0,-2e-05,3e-05,2e-05,-1e-05,-1e-05,-1e-05,1,20.0
2839,-1e-05,0.0,-2e-05,3e-05,2e-05,-1e-05,-1e-05,-1e-05,1,20.0
2840,-1e-05,0.0,-2e-05,3e-05,2e-05,-1e-05,-1e-05,-1e-05,1,20.0
2841,-1e-05,0.0,-2e-05,3e-05,2e-05,-1e-05,-1e-05,-1e-05,1,20.0
2842,-1e-05,0.0,-2e-05,3e-05,2e-05,-1e-05,-1e-05,-1e-05,1,20.0
2843,-1e-05,0.0,-2e-05,3e-05,2e-05,-1e-05,-1e-05,-1e-05,1,20.0
2844,-1e-05,0.0,-2e-05,3e-05,2e-05,-1e-05,-1e-05,-1e-05,1,20.0
2845,-1e-05,-4e-05,-3e-05,2e-05,3e-05,-6e-05,2e-05,-1e-05,1,20.0
2846,-1e-05,-4e-05,-3e-05,2e-05,3e-05,-6e-05,2e-05,-1e-05,1,20.0
2847,-1e-05,-4e-05,-3e-05,2e-05,3e-05,-6e-05,2e-05,-1e-05,1,20.0
2848,-1e-05,-4e-05,-3e-05,2e-05,3e-05,-6e-05,2e-05,-1e-05,1,20.0
2849,-1e-05,-4e-05,-3e-05,2e-05,3e-05,-6e-05,2e-05,-1e-05,1,20.0
2850,-1e-05,-4e-05,-3e-05,2e-05,3e-05,-6e-05,2e-05,-1e-05,1,20.0
2851,-1e-05,-4e-05,-3e-05,2e-05,3e-05,-6e-05,2e-05,-1e-05,1,20.0
2852,-1e-05,-4e-05,-3e-05,2e-05,3e-05,-6e-05,2e-05,-1e-05,1,20.0
2853,-1e-05,-4e-05,-3e-05,2e-05,3e-05,-6e-05,2e-05,-1e-05,1,20.0
2854,-1e-05,-4e-05,-3e-05,2e-05,3e-05,-6e-05,2e-05,-1e-05,1,20.0
2855,-1e-05,-4e-05,-3e-05,2e-05,3e-05,-6e-05,2e-05,-1e-05,1,20.0
2856,-1e-05,-4e-05,-3e-05,2e-05,3e-05,-6e-05,2e-05,-1e-05,1,20.0
2857,-1e-05,-4e-05,-3e-05,2e-05,3e-05,-6e-05,2e-05,-1e-05,1,20.0
2858,-1e-05,-4e-05,-3e-05,2e-05,3e-05,-6e-05,2e-05,-1e-05,1,20.0
2859,-1e-05,-4e-05,-3e-05,2e-05,3e-05,-6e-05,2e-05,-1e-05,1,20.0
2860,-1e-05,1e-05,5e-05,6e-05,5e-05,-0.00019,-5e-05,-1e-05,1,20.0
2861,0.0,0.0,1e-05,6e-05,9e-05,4e-05,-1e-05,-2e-05,1,20.0
2862,0.0,0.0,1e-05,6e-05,9e-05,4e-05,-1e-05,-2e-05,1,20.0
2863,0.0,0.0,1e-05,6e-05,9e-05,4e-05,-1e-05,-2e-05,1,20.0
2864,0.0,0.0,1e-05,6e-05,9e-05,4e-05,-1e-05,-2e-05,1,20.0
2865,0.0,0.0,1e-05,6e-05,9e-05,4e-05,-1e-05,-2e-05,1,20.0
2866,0.0,0.0,1e-05,6e-05,9e-05,4e-05,-1e-05,-2e-05,1,20.0
2867,0.0,0.0,1e-05,6e-05,9e-05,4e-05,-1e-05,-2e-05,1,20.0
2868,0.0,0.0,1e-05,6e-05,9e-05,4e-05,-1e-05,-2e-05,1,20.0
2869,0.0,0.0,1e-05,6e-05,9e-05,4e-05,-1e-05,-2e-05,1,20.0
2870,0.0,0.0,1e-05,6e-05,9e-05,4e-05,-1e-05,-2e-05,1,20.0
2871,0.0,0.0,1e-05,6e-05,9e-05,4e-05,-1e-05,-2e-05,1,20.0
2873,0.0,0.0,1e-05,6e-05,9e-05,4e-05,-1e-05,-2e-05,1,20.0
2874,0.0,0.0,1e-05,6e-05,9e-05,4e-05,-1e-05,-2e-05,1,20.0
2875,0.0,0.0,1e-05,6e-05,9e-05,4e-05,-1e-05,-2e-05,1,20.0
2876,0.0,0.0,1e-05,6e-05,9e-05,4e-05,-1e-05,-2e-05,1,20.0
2877,0.0,0.0,1e-05,6e-05,9e-05,4e-05,-1e-05,-2e-05,1,20.0
2878,0.0,0.0,1e-05,6e-05,9e-05,4e-05,-1e-05,-2e-05,1,20.0
2879,0.0,0.0,1e-05,6e-05,9e-05,4e-05,-1e-05,-2e-05,1,20.0
2880,0.0,0.0,1e-05,6e-05,9e-05,4e-05,-1e-05,-2e-05,1,20.0
2881,0.0,0.0,1e-05,6e-05,9e-05,4e-05,-1e-05,-2e-05,1,20.0
2882,-1e-05,1e-05,6e-05,0.0001,-1e-05,1e-05,0.0,-1e-05,1,20.0
2883,-1e-05,1e-05,6e-05,0.0001,-1e-05,1e-05,0.0,-1e-05,1,20.0
2884,0.0,0.0,2e-05,0.00012,4e-05,0.0001,-1e-05,-2e-05,1,20.0
2885,0.0,0.0,2e-05,0.00012,4e-05,0.0001,-1e-05,-2e-05,1,20.0
2886,0.0,0.0,2e-05,0.00012,4e-05,0.0001,-1e-05,-2e-05,1,20.0
2888,0.0,0.0,2e-05,0.00012,4e-05,0.0001,-1e-05,-2e-05,1,20.0
2889,0.0,0.0,2e-05,0.00012,4e-05,0.0001,-1e-05,-2e-05,1,20.0
2890,0.0,0.0,2e-05,0.00012,4e-05,0.0001,-1e-05,-2e-05,1,20.0
2891,0.0,0.0,2e-05,0.00012,4e-05,0.0001,-1e-05,-2e-05,1,20.0
2892,0.0,0.0,2e-05,0.00012,4e-05,0.0001,-1e-05,-2e-05,1,20.0
2893,0.0,0.0,2e-05,0.00012,4e-05,0.0001,-1e-05,-2e-05,1,20.0
2894,0.0,0.0,2e-05,0.00012,4e-05,0.0001,-1e-05,-2e-05,1,20.0
2895,0.0,0.0,2e-05,0.00012,4e-05,0.0001,-1e-05,-2e-05,1,20.0
2896,-2e-05,-4e-05,-6e-05,-0.00013,3e-05,7e-05,2e-05,-1e-05,1,20.0
2897,-2e-05,-4e-05,-6e-05,-0.00013,3e-05,7e-05,2e-05,-1e-05,1,20.0
2898,-2e-05,-4e-05,-6e-05,-0.00013,3e-05,7e-05,2e-05,-1e-05,1,20.0
2899,-2e-05,-4e-05,-6e-05,-0.00013,3e-05,7e-05,2e-05,-1e-05,1,20.0
2900,-2e-05,-4e-05,-6e-05,-0.00013,3e-05,7e-05,2e-05,-1e-05,1,20.0
2901,-2e-05,-4e-05,-6e-05,-0.00013,3e-05,7e-05,2e-05,-1e-05,1,20.0
2902,-2e-05,-4e-05,-6e-05,-0.00013,3e-05,7e-05,2e-05,-1e-05,1,20.0
2903,-2e-05,-4e-05,-6e-05,-0.00013,3e-05,7e-05,2e-05,-1e-05,1,20.0
2904,-2e-05,-4e-05,-6e-05,-0.00013,3e-05,7e-05,2e-05,-1e-05,1,20.0
2905,-2e-05,0.0,-3e-05,2e-05,-4e-05,-3e-05,1e-05,1e-05,1,20.0
2906,-2e-05,0.0,-3e-05,2e-05,-4e-05,-3e-05,1e-05,1e-05,1,20.0
2907,-2e-05,0.0,-3e-05,2e-05,-4e-05,-3e-05,1e-05,1e-05,1,20.0
2908,-2e-05,0.0,-3e-05,2e-05,-4e-05,-3e-05,1e-05,1e-05,1,20.0
2909,-2e-05,0.0,-3e-05,2e-05,-4e-05,-3e-05,1e-05,1e-05,1,20.0
2910,-2e-05,0.0,-3e-05,2e-05,-4e-05,-3e-05,1e-05,1e-05,1,20.0
2911,-2e-05,0.0,-3e-05,2e-05,-4e-05,-3e-05,1e-05,1e-05,1,20.0
2912,-2e-05,0.0,-3e-05,2e-05,-4e-05,-3e-05,1e-05,1e-05,1,20.0
2913,-2e-05,0.0,-3e-05,2e-05,-4e-05,-3e-05,1e-05,1e-05,1,20.0
2914,-2e-05,0.0,-3e-05,2e-05,-4e-05,-3e-05,1e-05,1e-05,1,20.0
2915,-2e-05,0.0,-3e-05,2e-05,-4e-05,-3e-05,1e-05,1e-05,1,20.0
2916,-2e-05,0.0,-3e-05,2e-05,-4e-05,-3e-05,1e-05,1e-05,1,20.0
2917,-2e-05,0.0,-3e-05,2e-05,-4e-05,-3e-05,1e-05,1e-05,1,20.0
2918,-2e-05,0.0,-3e-05,2e-05,-4e-05,-3e-05,1e-05,1e-05,1,20.0
2919,-2e-05,0.0,-3e-05,2e-05,-4e-05,-3e-05,1e-05,1e-05,1,20.0
2920,-2e-05,-1e-05,6e-05,3e-05,-6e-05,-2e-05,-1e-05,-1e-05,1,20.0
2921,-2e-05,-3e-05,-0.0001,-8e-05,0.0,-0.0001,-3e-05,-1e-05,1,20.0
2922,1e-05,0.0,2e-05,1e-05,-2e-05,-8e-05,-3e-05,-1e-05,1,20.0
2923,1e-05,0.0,2e-05,1e-05,-2e-05,-8e-05,-3e-05,-1e-05,1,20.0
2924,1e-05,0.0,2e-05,1e-05,-2e-05,-8e-05,-3e-05,-1e-05,1,20.0
2925,1e-05,0.0,2e-05,1e-05,-2e-05,-8e-05,-3e-05,-1e-05,1,20.0
2926,1e-05,0.0,2e-05,1e-05,-2e-05,-8e-05,-3e-05,-1e-05,1,20.0
2927,1e-05,0.0,2e-05,1e-05,-2e-05,-8e-05,-3e-05,-1e-05,1,20.0
2928,1e-05,0.0,2e-05,1e-05,-2e-05,-8e-05,-3e-05,-1e-05,1,20.0
2929,1e-05,0.0,2e-05,1e-05,-2e-05,-8e-05,-3e-05,-1e-05,1,20.0
2930,1e-05,0.0,2e-05,1e-05,-2e-05,-8e-05,-3e-05,-1e-05,1,20.0
2931,1e-05,0.0,2e-05,1e-05,-2e-05,-8e-05,-3e-05,-1e-05,1,20.0
2932,1e-05,0.0,2e-05,1e-05,-2e-05,-8e-05,-3e-05,-1e-05,1,20.0
2933,1e-05,0.0,2e-05,1e-05,-2e-05,-8e-05,-3e-05,-1e-05,1,20.0
2934,1e-05,0.0,2e-05,1e-05,-2e-05,-8e-05,-3e-05,-1e-05,1,20.0
2935,1e-05,0.0,2e-05,1e-05,-2e-05,-8e-05,-3e-05,-1e-05,1,20.0
2936,1e-05,0.0,2e-05,1e-05,-2e-05,-8e-05,-3e-05,-1e-05,1,20.0
2938,1e-05,0.0,2e-05,1e-05,-2e-05,-8e-05,-3e-05,-1e-05,1,20.0
2939,1e-05,0.0,2e-05,1e-05,-2e-05,-8e-05,-3e-05,-1e-05,1,20.0
2940,1e-05,0.0,2e-05,1e-05,-2e-05,-8e-05,-3e-05,-1e-05,1,20.0
2941,1e-05,0.0,2e-05,1e-05,-2e-05,-8e-05,-3e-05,-1e-05,1,20.0
2942,2e-05,0.0,-7e-05,-0.0002,-0.00016,0.00012,-2e-05,0.0,1,20.0
2943,2e-05,0.0,-7e-05,-0.0002,-0.00016,0.00012,-2e-05,0.0,1,20.0
2944,-3e-05,-2e-05,-3e-05,-1e-05,2e-05,-0.00021,-3e-05,-1e-05,1,20.0
2945,-3e-05,-2e-05,-3e-05,-1e-05,2e-05,-0.00021,-3e-05,-1e-05,1,20.0
2946,-3e-05,-2e-05,-3e-05,-1e-05,2e-05,-0.00021,-3e-05,-1e-05,1,20.0
2947,-3e-05,-2e-05,-3e-05,-1e-05,2e-05,-0.00021,-3e-05,-1e-05,1,20.0
2948,-3e-05,-2e-05,-3e-05,-1e-05,2e-05,-0.00021,-3e-05,-1e-05,1,20.0
2949,-3e-05,-2e-05,-3e-05,-1e-05,2e-05,-0.00021,-3e-05,-1e-05,1,20.0
2950,-3e-05,-2e-05,-3e-05,-1e-05,2e-05,-0.00021,-3e-05,-1e-05,1,20.0
2951,-3e-05,-2e-05,-3e-05,-1e-05,2e-05,-0.00021,-3e-05,-1e-05,1,20.0
2953,-3e-05,-2e-05,-3e-05,-1e-05,2e-05,-0.00021,-3e-05,-1e-05,1,20.0
2954,-3e-05,-2e-05,-3e-05,-1e-05,2e-05,-0.00021,-3e-05,-1e-05,1,20.0
2955,-3e-05,-2e-05,-3e-05,-1e-05,2e-05,-0.00021,-3e-05,-1e-05,1,20.0
2956,-3e-05,-2e-05,-3e-05,-1e-05,2e-05,-0.00021,-3e-05,-1e-05,1,20.0
2957,-3e-05,-2e-05,-3e-05,-1e-05,2e-05,-0.00021,-3e-05,-1e-05,1,20.0
2958,-3e-05,-2e-05,-3e-05,-1e-05,2e-05,-0.00021,-3e-05,-1e-05,1,20.0
2959,-3e-05,-2e-05,-3e-05,-1e-05,2e-05,-0.00021,-3e-05,-1e-05,1,20.0
2960,-3e-05,-2e-05,-3e-05,-1e-05,2e-05,-0.00021,-3e-05,-1e-05,1,20.0
2961,-3e-05,-2e-05,-3e-05,-1e-05,2e-05,-0.00021,-3e-05,-1e-05,1,20.0
2962,-3e-05,-2e-05,-3e-05,-1e-05,2e-05,-0.00021,-3e-05,-1e-05,1,20.0
2963,-3e-05,-2e-05,-3e-05,-1e-05,2e-05,-0.00021,-3e-05,-1e-05,1,20.0
2964,-3e-05,-2e-05,-3e-05,-1e-05,2e-05,-0.00021,-3e-05,-1e-05,1,20.0
2965,-3e-05,-2e-05,-3e-05,-1e-05,2e-05,-0.00021,-3e-05,-1e-05,1,20.0
2966,0.0,1e-05,-1e-05,-2e-05,2e-05,6e-05,-5e-05,-1e-05,1,20.0
2967,-2e-05,0.0,-4e-05,-4e-05,4e-05,0.0001,-1e-05,0.0,1,20.0
2968,-2e-05,0.0,-4e-05,-4e-05,4e-05,0.0001,-1e-05,0.0,1,20.0
2969,-2e-05,0.0,-4e-05,-4e-05,4e-05,0.0001,-1e-05,0.0,1,20.0
2970,-2e-05,0.0,-4e-05,-4e-05,4e-05,0.0001,-1e-05,0.0,1,20.0
2971,-2e-05,0.0,-4e-05,-4e-05,4e-05,0.0001,-1e-05,0.0,1,20.0
2972,-2e-05,0.0,-4e-05,-4e-05,4e-05,0.0001,-1e-05,0.0,1,20.0
2973,-2e-05,0.0,-4e-05,-4e-05,4e-05,0.0001,-1e-05,0.0,1,20.0
2974,-2e-05,0.0,-4e-05,-4e-05,4e-05,0.0001,-1e-05,0.0,1,20.0
2975,-2e-05,0.0,-4e-05,-4e-05,4e-05,0.0001,-1e-05,0.0,1,20.0
2976,-2e-05,0.0,-4e-05,-4e-05,4e-05,0.0001,-1e-05,0.0,1,20.0
2977,-2e-05,0.0,-4e-05,-4e-05,4e-05,0.0001,-1e-05,0.0,1,20.0
2978,-2e-05,0.0,-4e-05,-4e-05,4e-05,0.0001,-1e-05,0.0,1,20.0
2979,-2e-05,0.0,-4e-05,-4e-05,4e-05,0.0001,-1e-05,0.0,1,20.0
2980,0.0,0.0,3e-05,-5e-05,-2e-05,-0.00014,0.0,0.0,1,20.0
2981,2e-05,3e-05,4e-05,7e-05,7e-05,0.00018,4e-05,0.0,1,20.0
2982,-1e-05,-2e-05,2e-05,-2e-05,-8e-05,-6e-05,-1e-05,0.0,1,20.0
2983,-1e-05,-2e-05,2e-05,-2e-05,-8e-05,-6e-05,-1e-05,0.0,1,20.0
2984,-1e-05,-2e-05,2e-05,-2e-05,-8e-05,-6e-05,-1e-05,0.0,1,20.0
2985,-1e-05,-2e-05,2e-05,-2e-05,-8e-05,-6e-05,-1e-05,0.0,1,20.0
2986,-1e-05,-2e-05,2e-05,-2e-05,-8e-05,-6e-05,-1e-05,0.0,1,20.0
2988,-1e-05,-2e-05,2e-05,-2e-05,-8e-05,-6e-05,-1e-05,0.0,1,20.0
2989,-1e-05,-2e-05,2e-05,-2e-05,-8e-05,-6e-05,-1e-05,0.0,1,20.0
2990,-1e-05,-2e-05,2e-05,-2e-05,-8e-05,-6e-05,-1e-05,0.0,1,20.0
2991,-1e-05,-2e-05,2e-05,-2e-05,-8e-05,-6e-05,-1e-05,0.0,1,20.0
2992,-1e-05,-2e-05,2e-05,-2e-05,-8e-05,-6e-05,-1e-05,0.0,1,20.0
2993,-1e-05,-2e-05,2e-05,-2e-05,-8e-05,-6e-05,-1e-05,0.0,1,20.0
2994,-1e-05,-2e-05,2e-05,-2e-05,-8e-05,-6e-05,-1e-05,0.0,1,20.0
2995,-1e-05,-2e-05,2e-05,-2e-05,-8e-05,-6e-05,-1e-05,0.0,1,20.0
2996,-1e-05,-2e-05,2e-05,-2e-05,-8e-05,-6e-05,-1e-05,0.0,1,20.0
2997,-1e-05,-2e-05,2e-05,-2e-05,-8e-05,-6e-05,-1e-05,0.0,1,20.0
2998,-1e-05,-2e-05,2e-05,-2e-05,-8e-05,-6e-05,-1e-05,0.0,1,20.0
2999,-1e-05,-2e-05,2e-05,-2e-05,-8e-05,-6e-05,-1e-05,0.0,1,20.0
3000,-1e-05,-2e-05,2e-05,-2e-05,-8e-05,-6e-05,-1e-05,0.0,1,20.0
3001,-1e-05,-2e-05,2e-05,-2e-05,-8e-05,-6e-05,-1e-05,0.0,1,20.0
3002,-2e-05,-4e-05,-9e-05,-0.00015,4e-05,4e-05,0.0,-2e-05,1,20.0
3003,-2e-05,-4e-05,-9e-05,-0.00015,4e-05,4e-05,0.0,-2e-05,1,20.0
3004,-1e-05,0.0,1e-05,-5e-05,-4e-05,1e-05,-3e-05,0.0,1,20.0
3005,-1e-05,0.0,1e-05,-5e-05,-4e-05,1e-05,-3e-05,0.0,1,20.0
3006,-1e-05,0.0,1e-05,-5e-05,-4e-05,1e-05,-3e-05,0.0,1,20.0
3007,-1e-05,0.0,1e-05,-5e-05,-4e-05,1e-05,-3e-05,0.0,1,20.0
3008,-1e-05,0.0,1e-05,-5e-05,-4e-05,1e-05,-3e-05,0.0,1,20.0
3009,-1e-05,0.0,1e-05,-5e-05,-4e-05,1e-05,-3e-05,0.0,1,20.0
3010,-1e-05,0.0,1e-05,-5e-05,-4e-05,1e-05,-3e-05,0.0,1,20.0
3011,-1e-05,0.0,1e-05,-5e-05,-4e-05,1e-05,-3e-05,0.0,1,20.0
3012,-1e-05,0.0,1e-05,-5e-05,-4e-05,1e-05,-3e-05,0.0,1,20.0
3013,-1e-05,0.0,1e-05,-5e-05,-4e-05,1e-05,-3e-05,0.0,1,20.0
3014,-1e-05,0.0,1e-05,-5e-05,-4e-05,1e-05,-3e-05,0.0,1,20.0
3015,-1e-05,0.0,1e-05,-5e-05,-4e-05,1e-05,-3e-05,0.0,1,20.0
3016,-1e-05,0.0,1e-05,-5e-05,-4e-05,1e-05,-3e-05,0.0,1,20.0
3017,-1e-05,0.0,1e-05,-5e-05,-4e-05,1e-05,-3e-05,0.0,1,20.0
3018,-1e-05,0.0,1e-05,-5e-05,-4e-05,1e-05,-3e-05,0.0,1,20.0
3019,-1e-05,0.0,1e-05,-5e-05,-4e-05,1e-05,-3e-05,0.0,1,20.0
3020,-1e-05,0.0,1e-05,-5e-05,-4e-05,1e-05,-3e-05,0.0,1,20.0
3021,-1e-05,0.0,1e-05,-5e-05,-4e-05,1e-05,-3e-05,0.0,1,20.0
3022,-1e-05,0.0,1e-05,-5e-05,-4e-05,1e-05,-3e-05,0.0,1,20.0
3023,-1e-05,0.0,1e-05,-5e-05,-4e-05,1e-05,-3e-05,0.0,1,20.0
3024,-1e-05,0.0,1e-05,-5e-05,-4e-05,1e-05,-3e-05,0.0,1,20.0
3025,0.0,-3e-05,-6e-05,0.0,-5e-05,-2e-05,-3e-05,-2e-05,1,20.0
3026,0.0,0.0,3e-05,3e-05,-2e-05,-0.0002,-5e-05,-1e-05,1,20.0
3027,-1e-05,-2e-05,-4e-05,-8e-05,6e-05,9e-05,2e-05,-3e-05,1,20.0
3028,-1e-05,-2e-05,-4e-05,-8e-05,6e-05,9e-05,2e-05,-3e-05,1,20.0
3029,-1e-05,-2e-05,-4e-05,-8e-05,6e-05,9e-05,2e-05,-3e-05,1,20.0
3030,-1e-05,-2e-05,-4e-05,-8e-05,6e-05,9e-05,2e-05,-3e-05,1,20.0
3031,-1e-05,-2e-05,-4e-05,-8e-05,6e-05,9e-05,2e-05,-3e-05,1,20.0
3032,-1e-05,-2e-05,-4e-05,-8e-05,6e-05,9e-05,2e-05,-3e-05,1,20.0
3033,-1e-05,-2e-05,-4e-05,-8e-05,6e-05,9e-05,2e-05,-3e-05,1,20.0
3034,-1e-05,-2e-05,-4e-05,-8e-05,6e-05,9e-05,2e-05,-3e-05,1,20.0
3035,-1e-05,-2e-05,-4e-05,-8e-05,6e-05,9e-05,2e-05,-3e-05,1,20.0
3036,-1e-05,-2e-05,-4e-05,-8e-05,6e-05,9e-05,2e-05,-3e-05,1,20.0
3038,-1e-05,-2e-05,-4e-05,-8e-05,6e-05,9e-05,2e-05,-3e-05,1,20.0
3039,-1e-05,-2e-05,-4e-05,-8e-05,6e-05,9e-05,2e-05,-3e-05,1,20.0
3040,-1e-05,-3e-05,-1e-05,4e-05,2e-05,-0.00011,-4e-05,-1e-05,1,20.0
3041,-1e-05,0.0,4e-05,0.0001,-1e-05,1e-05,-1e-05,1e-05,1,20.0
3042,-1e-05,0.0,4e-05,0.0001,-1e-05,1e-05,-1e-05,1e-05,1,20.0
3043,-1e-05,0.0,4e-05,0.0001,-1e-05,1e-05,-1e-05,1e-05,1,20.0
3044,-1e-05,0.0,4e-05,0.0001,-1e-05,1e-05,-1e-05,1e-05,1,20.0
3045,-1e-05,0.0,4e-05,0.0001,-1e-05,1e-05,-1e-05,1e-05,1,20.0
3046,-1e-05,0.0,4e-05,0.0001,-1e-05,1e-05,-1e-05,1e-05,1,20.0
3047,-1e-05,0.0,4e-05,0.0001,-1e-05,1e-05,-1e-05,1e-05,1,20.0
3048,-1e-05,0.0,4e-05,0.0001,-1e-05,1e-05,-1e-05,1e-05,1,20.0
3049,-1e-05,0.0,4e-05,0.0001,-1e-05,1e-05,-1e-05,1e-05,1,20.0
3050,-1e-05,0.0,4e-05,0.0001,-1e-05,1e-05,-1e-05,1e-05,1,20.0
3051,-1e-05,0.0,4e-05,0.0001,-1e-05,1e-05,-1e-05,1e-05,1,20.0
3052,-1e-05,0.0,4e-05,0.0001,-1e-05,1e-05,-1e-05,1e-05,1,20.0
3053,-1e-05,0.0,4e-05,0.0001,-1e-05,1e-05,-1e-05,1e-05,1,20.0
3054,-1e-05,0.0,4e-05,0.0001,-1e-05,1e-05,-1e-05,1e-05,1,20.0
3055,-1e-05,0.0,4e-05,0.0001,-1e-05,1e-05,-1e-05,1e-05,1,20.0
3056,-1e-05,0.0,4e-05,0.0001,-1e-05,1e-05,-1e-05,1e-05,1,20.0
3057,-1e-05,0.0,4e-05,0.0001,-1e-05,1e-05,-1e-05,1e-05,1,20.0
3058,-1e-05,0.0,4e-05,0.0001,-1e-05,1e-05,-1e-05,1e-05,1,20.0
3059,-1e-05,0.0,4e-05,0.0001,-1e-05,1e-05,-1e-05,1e-05,1,20.0
3060,-1e-05,0.0,4e-05,0.0001,-1e-05,1e-05,-1e-05,1e-05,1,20.0
3061,-1e-05,0.0,4e-05,0.0001,-1e-05,1e-05,-1e-05,1e-05,1,20.0
3062,-2e-05,0.0,0.0,2e-05,1e-05,-2e-05,-1e-05,-2e-05,1,20.0
3063,-2e-05,0.0,0.0,2e-05,1e-05,-2e-05,-1e-05,-2e-05,1,20.0
3064,-2e-05,-2e-05,-5e-05,-8e-05,0.0,0.00014,2e-05,1e-05,1,20.0
3065,0.0,-1e-05,1e-05,6e-05,0.0,-5e-05,-1e-05,-1e-05,1,20.0
3066,0.0,-1e-05,1e-05,6e-05,0.0,-5e-05,-1e-05,-1e-05,1,20.0
3067,0.0,-1e-05,1e-05,6e-05,0.0,-5e-05,-1e-05,-1e-05,1,20.0
3068,0.0,-1e-05,1e-05,6e-05,0.0,-5e-05,-1e-05,-1e-05,1,20.0
3069,0.0,-1e-05,1e-05,6e-05,0.0,-5e-05,-1e-05,-1e-05,1,20.0
3070,0.0,-1e-05,1e-05,6e-05,0.0,-5e-05,-1e-05,-1e-05,1,20.0
3071,0.0,-1e-05,1e-05,6e-05,0.0,-5e-05,-1e-05,-1e-05,1,20.0
3072,0.0,-1e-05,1e-05,6e-05,0.0,-5e-05,-1e-05,-1e-05,1,20.0
3073,0.0,-1e-05,1e-05,6e-05,0.0,-5e-05,-1e-05,-1e-05,1,20.0
3074,0.0,-1e-05,1e-05,6e-05,0.0,-5e-05,-1e-05,-1e-05,1,20.0
3075,0.0,-1e-05,1e-05,6e-05,0.0,-5e-05,-1e-05,-1e-05,1,20.0
3076,0.0,-1e-05,1e-05,6e-05,0.0,-5e-05,-1e-05,-1e-05,1,20.0
3077,0.0,-1e-05,1e-05,6e-05,0.0,-5e-05,-1e-05,-1e-05,1,20.0
3078,0.0,-1e-05,1e-05,6e-05,0.0,-5e-05,-1e-05,-1e-05,1,20.0
3079,0.0,-1e-05,1e-05,6e-05,0.0,-5e-05,-1e-05,-1e-05,1,20.0
3080,0.0,-1e-05,1e-05,6e-05,0.0,-5e-05,-1e-05,-1e-05,1,20.0
3081,0.0,-1e-05,1e-05,6e-05,0.0,-5e-05,-1e-05,-1e-05,1,20.0
3082,0.0,-1e-05,1e-05,6e-05,0.0,-5e-05,-1e-05,-1e-05,1,20.0
3083,0.0,-1e-05,1e-05,6e-05,0.0,-5e-05,-1e-05,-1e-05,1,20.0
3084,0.0,-1e-05,1e-05,6e-05,0.0,-5e-05,-1e-05,-1e-05,1,20.0
3085,0.0,1e-05,0.0,-6e-05,1e-05,0.00011,4e-05,0.0,1,20.0
3086,0.0,-1e-05,1e-05,0.0002,8e-05,-9e-05,-2e-05,-1e-05,1,20.0
3088,-2e-05,-4e-05,-0.00011,-8e-05,-1e-05,0.00012,0.0,-1e-05,1,20.0
3089,-2e-05,-4e-05,-0.00011,-8e-05,-1e-05,0.00012,0.0,-1e-05,1,20.0
3090,-2e-05,-4e-05,-0.00011,-8e-05,-1e-05,0.00012,0.0,-1e-05,1,20.0
3091,-2e-05,-4e-05,-0.00011,-8e-05,-1e-05,0.00012,0.0,-1e-05,1,20.0
3093,-2e-05,-4e-05,-0.00011,-8e-05,-1e-05,0.00012,0.0,-1e-05,1,20.0
3094,-2e-05,-4e-05,-0.00011,-8e-05,-1e-05,0.00012,0.0,-1e-05,1,20.0
3095,-2e-05,-4e-05,-0.00011,-8e-05,-1e-05,0.00012,0.0,-1e-05,1,20.0
3096,-2e-05,-4e-05,-0.00011,-8e-05,-1e-05,0.00012,0.0,-1e-05,1,20.0
3097,-2e-05,-4e-05,-0.00011,-8e-05,-1e-05,0.00012,0.0,-1e-05,1,20.0
3098,-2e-05,-4e-05,-0.00011,-8e-05,-1e-05,0.00012,0.0,-1e-05,1,20.0
3099,-2e-05,-4e-05,-0.00011,-8e-05,-1e-05,0.00012,0.0,-1e-05,1,20.0
3100,1e-05,2e-05,6e-05,0.00011,0.0,-6e-05,2e-05,-2e-05,1,20.0
3101,-1e-05,-3e-05,-0.0001,-0.00024,-8e-05,-1e-05,0.0,1e-05,1,20.0
3102,1e-05,1e-05,3e-05,1e-05,-2e-05,2e-05,1e-05,1e-05,1,20.0
3103,1e-05,1e-05,3e-05,1e-05,-2e-05,2e-05,1e-05,1e-05,1,20.0
3104,1e-05,1e-05,3e-05,1e-05,-2e-05,2e-05,1e-05,1e-05,1,20.0
3105,1e-05,1e-05,3e-05,1e-05,-2e-05,2e-05,1e-05,1e-05,1,20.0
3106,1e-05,1e-05,3e-05,1e-05,-2e-05,2e-05,1e-05,1e-05,1,20.0
3107,1e-05,1e-05,3e-05,1e-05,-2e-05,2e-05,1e-05,1e-05,1,20.0
3108,1e-05,1e-05,3e-05,1e-05,-2e-05,2e-05,1e-05,1e-05,1,20.0
3109,1e-05,1e-05,3e-05,1e-05,-2e-05,2e-05,1e-05,1e-05,1,20.0
3110,1e-05,1e-05,3e-05,1e-05,-2e-05,2e-05,1e-05,1e-05,1,20.0
3111,1e-05,1e-05,3e-05,1e-05,-2e-05,2e-05,1e-05,1e-05,1,20.0
3112,1e-05,1e-05,3e-05,1e-05,-2e-05,2e-05,1e-05,1e-05,1,20.0
3113,1e-05,1e-05,3e-05,1e-05,-2e-05,2e-05,1e-05,1e-05,1,20.0
3114,1e-05,1e-05,3e-05,1e-05,-2e-05,2e-05,1e-05,1e-05,1,20.0
3115,1e-05,1e-05,3e-05,1e-05,-2e-05,2e-05,1e-05,1e-05,1,20.0
3116,1e-05,1e-05,3e-05,1e-05,-2e-05,2e-05,1e-05,1e-05,1,20.0
3117,1e-05,1e-05,3e-05,1e-05,-2e-05,2e-05,1e-05,1e-05,1,20.0
3118,1e-05,1e-05,3e-05,1e-05,-2e-05,2e-05,1e-05,1e-05,1,20.0
3119,1e-05,1e-05,3e-05,1e-05,-2e-05,2e-05,1e-05,1e-05,1,20.0
3120,1e-05,1e-05,3e-05,1e-05,-2e-05,2e-05,1e-05,1e-05,1,20.0
3121,1e-05,1e-05,3e-05,1e-05,-2e-05,2e-05,1e-05,1e-05,1,20.0
3122,-2e-05,0.0,-1e-05,6e-05,9e-05,0.00016,-2e-05,-2e-05,1,20.0
3123,-2e-05,0.0,-1e-05,6e-05,9e-05,0.00016,-2e-05,-2e-05,1,20.0
3124,-1e-05,0.0,0.0,-8e-05,-5e-05,0.00015,-2e-05,-1e-05,1,20.0
3125,-1e-05,0.0,0.0,-8e-05,-5e-05,0.00015,-2e-05,-1e-05,1,20.0
3126,-1e-05,0.0,0.0,-8e-05,-5e-05,0.00015,-2e-05,-1e-05,1,20.0
3127,-1e-05,0.0,0.0,-8e-05,-5e-05,0.00015,-2e-05,-1e-05,1,20.0
3128,-1e-05,0.0,0.0,-8e-05,-5e-05,0.00015,-2e-05,-1e-05,1,20.0
3129,-1e-05,0.0,0.0,-8e-05,-5e-05,0.00015,-2e-05,-1e-05,1,20.0
3130,-1e-05,0.0,0.0,-8e-05,-5e-05,0.00015,-2e-05,-1e-05,1,20.0
3131,-1e-05,0.0,0.0,-8e-05,-5e-05,0.00015,-2e-05,-1e-05,1,20.0
3132,-1e-05,0.0,0.0,-8e-05,-5e-05,0.00015,-2e-05,-1e-05,1,20.0
3133,-1e-05,0.0,0.0,-8e-05,-5e-05,0.00015,-2e-05,-1e-05,1,20.0
3134,-1e-05,0.0,0.0,-8e-05,-5e-05,0.00015,-2e-05,-1e-05,1,20.0
3135,-1e-05,0.0,0.0,-8e-05,-5e-05,0.00015,-2e-05,-1e-05,1,20.0
3136,-1e-05,0.0,0.0,-8e-05,-5e-05,0.00015,-2e-05,-1e-05,1,20.0
3138,-1e-05,0.0,0.0,-8e-05,-5e-05,0.00015,-2e-05,-1e-05,1,20.0
3139,-1e-05,0.0,0.0,-8e-05,-5e-05,0.00015,-2e-05,-1e-05,1,20.0
3140,-1e-05,0.0,0.0,-8e-05,-5e-05,0.00015,-2e-05,-1e-05,1,20.0
3141,-1e-05,0.0,0.0,-8e-05,-5e-05,0.00015,-2e-05,-1e-05,1,20.0
3142,-1e-05,0.0,0.0,-8e-05,-5e-05,0.00015,-2e-05,-1e-05,1,20.0
3143,-1e-05,0.0,0.0,-8e-05,-5e-05,0.00015,-2e-05,-1e-05,1,20.0
3144,-1e-05,0.0,0.0,-8e-05,-5e-05,0.00015,-2e-05,-1e-05,1,20.0
3145,1e-05,1e-05,4e-05,0.0001,0.0,-0.00024,-3e-05,-1e-05,1,20.0
3146,0.0,-4e-05,-1e-05,-2e-05,-7e-05,-0.00019,-2e-05,-1e-05,1,20.0
3147,0.0,-4e-05,-1e-05,-2e-05,-7e-05,-0.00019,-2e-05,-1e-05,1,20.0
3148,0.0,-4e-05,-1e-05,-2e-05,-7e-05,-0.00019,-2e-05,-1e-05,1,20.0
3149,0.0,-4e-05,-1e-05,-2e-05,-7e-05,-0.00019,-2e-05,-1e-05,1,20.0
3150,0.0,-4e-05,-1e-05,-2e-05,-7e-05,-0.00019,-2e-05,-1e-05,1,20.0
3151,0.0,-4e-05,-1e-05,-2e-05,-7e-05,-0.00019,-2e-05,-1e-05,1,20.0
3152,0.0,-4e-05,-1e-05,-2e-05,-7e-05,-0.00019,-2e-05,-1e-05,1,20.0
3153,0.0,-4e-05,-1e-05,-2e-05,-7e-05,-0.00019,-2e-05,-1e-05,1,20.0
3154,0.0,-4e-05,-1e-05,-2e-05,-7e-05,-0.00019,-2e-05,-1e-05,1,20.0
3155,0.0,-4e-05,-1e-05,-2e-05,-7e-05,-0.00019,-2e-05,-1e-05,1,20.0
3156,0.0,-4e-05,-1e-05,-2e-05,-7e-05,-0.00019,-2e-05,-1e-05,1,20.0
3157,0.0,-4e-05,-1e-05,-2e-05,-7e-05,-0.00019,-2e-05,-1e-05,1,20.0
3158,0.0,-4e-05,-1e-05,-2e-05,-7e-05,-0.00019,-2e-05,-1e-05,1,20.0
3159,-2e-05,-1e-05,-2e-05,-1e-05,-1e-05,7e-05,-1e-05,-2e-05,1,20.0
3160,-2e-05,-1e-05,-2e-05,-1e-05,-1e-05,7e-05,-1e-05,-2e-05,1,20.0
3161,-2e-05,-1e-05,-2e-05,-1e-05,-1e-05,7e-05,-1e-05,-2e-05,1,20.0
3162,-2e-05,-1e-05,-2e-05,-1e-05,-1e-05,7e-05,-1e-05,-2e-05,1,20.0
3163,-2e-05,-1e-05,-2e-05,-1e-05,-1e-05,7e-05,-1e-05,-2e-05,1,20.0
3164,-2e-05,-1e-05,-2e-05,-1e-05,-1e-05,7e-05,-1e-05,-2e-05,1,20.0
4678,-0.00022,-2e-05,1e-05,-7e-05,7e-05,0.00075,0.00024,-0.00013,2,20.0
4679,-0.00022,-2e-05,1e-05,-7e-05,7e-05,0.00075,0.00024,-0.00013,2,20.0
4680,-0.00022,-2e-05,1e-05,-7e-05,7e-05,0.00075,0.00024,-0.00013,2,20.0
4681,-0.00022,-2e-05,1e-05,-7e-05,7e-05,0.00075,0.00024,-0.00013,2,20.0
4683,-0.00022,-2e-05,1e-05,-7e-05,7e-05,0.00075,0.00024,-0.00013,2,20.0
4684,-0.00022,-2e-05,1e-05,-7e-05,7e-05,0.00075,0.00024,-0.00013,2,20.0
4685,-0.00022,-2e-05,1e-05,-7e-05,7e-05,0.00075,0.00024,-0.00013,2,20.0
4687,-0.00022,-2e-05,1e-05,-7e-05,7e-05,0.00075,0.00024,-0.00013,2,20.0
4689,-0.00022,-2e-05,1e-05,-7e-05,7e-05,0.00075,0.00024,-0.00013,2,20.0
4690,0.00011,-4e-05,-0.00036,-0.00111,0.0003,0.00093,0.00127,4e-05,2,20.0
4691,-0.00015,-1e-05,7e-05,1e-05,-0.00011,-0.00041,-0.00059,5e-05,2,20.0
4692,-0.00015,-1e-05,7e-05,1e-05,-0.00011,-0.00041,-0.00059,5e-05,2,20.0
4693,-0.00015,-1e-05,7e-05,1e-05,-0.00011,-0.00041,-0.00059,5e-05,2,20.0
4694,-0.00015,-1e-05,7e-05,1e-05,-0.00011,-0.00041,-0.00059,5e-05,2,20.0
4695,-0.00015,-1e-05,7e-05,1e-05,-0.00011,-0.00041,-0.00059,5e-05,2,20.0
4696,-0.00015,-1e-05,7e-05,1e-05,-0.00011,-0.00041,-0.00059,5e-05,2,20.0
4697,-0.00015,-1e-05,7e-05,1e-05,-0.00011,-0.00041,-0.00059,5e-05,2,20.0
4698,-0.00015,-1e-05,7e-05,1e-05,-0.00011,-0.00041,-0.00059,5e-05,2,20.0
4699,-0.00015,-1e-05,7e-05,1e-05,-0.00011,-0.00041,-0.00059,5e-05,2,20.0
4700,-0.00015,-1e-05,7e-05,1e-05,-0.00011,-0.00041,-0.00059,5e-05,2,20.0
4701,-0.00015,-1e-05,7e-05,1e-05,-0.00011,-0.00041,-0.00059,5e-05,2,20.0
4702,-0.00015,-1e-05,7e-05,1e-05,-0.00011,-0.00041,-0.00059,5e-05,2,20.0
4703,-0.00015,-1e-05,7e-05,1e-05,-0.00011,-0.00041,-0.00059,5e-05,2,20.0
4704,-3e-05,-0.00015,-0.00048,-0.00116,-0.00025,-0.00042,-0.0001,-6e-05,2,20.0
4705,0.00011,4e-05,0.00011,0.0,0.00012,0.00035,0.00091,0.00016,2,20.0
4706,0.00011,4e-05,0.00011,0.0,0.00012,0.00035,0.00091,0.00016,2,20.0
4707,0.00011,4e-05,0.00011,0.0,0.00012,0.00035,0.00091,0.00016,2,20.0
4708,0.00011,4e-05,0.00011,0.0,0.00012,0.00035,0.00091,0.00016,2,20.0
4709,0.00011,4e-05,0.00011,0.0,0.00012,0.00035,0.00091,0.00016,2,20.0
4710,0.00011,4e-05,0.00011,0.0,0.00012,0.00035,0.00091,0.00016,2,20.0
4711,0.00011,4e-05,0.00011,0.0,0.00012,0.00035,0.00091,0.00016,2,20.0
4712,0.00011,4e-05,0.00011,0.0,0.00012,0.00035,0.00091,0.00016,2,20.0
4713,0.00011,4e-05,0.00011,0.0,0.00012,0.00035,0.00091,0.00016,2,20.0
4714,0.00011,4e-05,0.00011,0.0,0.00012,0.00035,0.00091,0.00016,2,20.0
4715,0.00011,4e-05,0.00011,0.0,0.00012,0.00035,0.00091,0.00016,2,20.0
4716,0.00011,4e-05,0.00011,0.0,0.00012,0.00035,0.00091,0.00016,2,20.0
4717,0.00011,4e-05,0.00011,0.0,0.00012,0.00035,0.00091,0.00016,2,20.0
4718,0.00011,4e-05,0.00011,0.0,0.00012,0.00035,0.00091,0.00016,2,20.0
4719,0.00011,4e-05,0.00011,0.0,0.00012,0.00035,0.00091,0.00016,2,20.0
4720,0.00011,4e-05,0.00011,0.0,0.00012,0.00035,0.00091,0.00016,2,20.0
4721,0.00011,4e-05,0.00011,0.0,0.00012,0.00035,0.00091,0.00016,2,20.0
4722,0.00011,4e-05,0.00011,0.0,0.00012,0.00035,0.00091,0.00016,2,20.0
4723,0.00011,4e-05,0.00011,0.0,0.00012,0.00035,0.00091,0.00016,2,20.0
4724,0.00011,4e-05,0.00011,0.0,0.00012,0.00035,0.00091,0.00016,2,20.0
4725,0.00011,4e-05,0.00011,0.0,0.00012,0.00035,0.00091,0.00016,2,20.0
4726,0.00011,4e-05,0.00011,0.0,0.00012,0.00035,0.00091,0.00016,2,20.0
4727,-0.0001,-0.00013,-0.00026,-0.00081,-3e-05,0.00015,-7e-05,-0.00013,2,20.0
4728,-0.0001,-0.00013,-0.00026,-0.00081,-3e-05,0.00015,-7e-05,-0.00013,2,20.0
4729,-0.0001,-0.00013,-0.00026,-0.00081,-3e-05,0.00015,-7e-05,-0.00013,2,20.0
4730,-0.0001,-0.00013,-0.00026,-0.00081,-3e-05,0.00015,-7e-05,-0.00013,2,20.0
4731,-0.0001,-0.00013,-0.00026,-0.00081,-3e-05,0.00015,-7e-05,-0.00013,2,20.0
4732,-0.0001,-0.00013,-0.00026,-0.00081,-3e-05,0.00015,-7e-05,-0.00013,2,20.0
4733,-0.0001,-0.00013,-0.00026,-0.00081,-3e-05,0.00015,-7e-05,-0.00013,2,20.0
