time,channel1,channel2,channel3,channel4,channel5,channel6,channel7,channel8,class,label
2208,-2e-05,-5e-05,-7e-05,-6e-05,7e-05,-6e-05,0.0,-1e-05,1,2.0
2209,-2e-05,-5e-05,-7e-05,-6e-05,7e-05,-6e-05,0.0,-1e-05,1,2.0
2210,-2e-05,-5e-05,-7e-05,-6e-05,7e-05,-6e-05,0.0,-1e-05,1,2.0
2211,-2e-05,-5e-05,-7e-05,-6e-05,7e-05,-6e-05,0.0,-1e-05,1,2.0
2212,-2e-05,-5e-05,-7e-05,-6e-05,7e-05,-6e-05,0.0,-1e-05,1,2.0
2213,-2e-05,-5e-05,-7e-05,-6e-05,7e-05,-6e-05,0.0,-1e-05,1,2.0
2214,-2e-05,-2e-05,-2e-05,-0.00013,-0.00017,-0.00012,-4e-05,-5e-05,1,2.0
2215,-1e-05,-2e-05,0.0,0.0,-0.00017,-1e-05,-1e-05,-2e-05,1,2.0
2216,-1e-05,-2e-05,0.0,0.0,-0.00017,-1e-05,-1e-05,-2e-05,1,2.0
2217,-1e-05,-2e-05,0.0,0.0,-0.00017,-1e-05,-1e-05,-2e-05,1,2.0
2218,-1e-05,-2e-05,0.0,0.0,-0.00017,-1e-05,-1e-05,-2e-05,1,2.0
2219,-1e-05,-2e-05,0.0,0.0,-0.00017,-1e-05,-1e-05,-2e-05,1,2.0
2220,-1e-05,-2e-05,0.0,0.0,-0.00017,-1e-05,-1e-05,-2e-05,1,2.0
2221,-1e-05,-2e-05,0.0,0.0,-0.00017,-1e-05,-1e-05,-2e-05,1,2.0
2222,-1e-05,-2e-05,0.0,0.0,-0.00017,-1e-05,-1e-05,-2e-05,1,2.0
2224,-1e-05,-2e-05,0.0,0.0,-0.00017,-1e-05,-1e-05,-2e-05,1,2.0
2225,-1e-05,-2e-05,0.0,0.0,-0.00017,-1e-05,-1e-05,-2e-05,1,2.0
2226,-1e-05,-2e-05,0.0,0.0,-0.00017,-1e-05,-1e-05,-2e-05,1,2.0
2227,-1e-05,-2e-05,0.0,0.0,-0.00017,-1e-05,-1e-05,-2e-05,1,2.0
2228,1e-05,-1e-05,-3e-05,-4e-05,-8e-05,-4e-05,0.0,-2e-05,1,2.0
2229,1e-05,-1e-05,-3e-05,-4e-05,-8e-05,-4e-05,0.0,-2e-05,1,2.0
2230,1e-05,-1e-05,-3e-05,-4e-05,-8e-05,-4e-05,0.0,-2e-05,1,2.0
2231,1e-05,-1e-05,-3e-05,-4e-05,-8e-05,-4e-05,0.0,-2e-05,1,2.0
2232,1e-05,-1e-05,-3e-05,-4e-05,-8e-05,-4e-05,0.0,-2e-05,1,2.0
2233,1e-05,-1e-05,-3e-05,-4e-05,-8e-05,-4e-05,0.0,-2e-05,1,2.0
2234,1e-05,-1e-05,-3e-05,-4e-05,-8e-05,-4e-05,0.0,-2e-05,1,2.0
2235,-1e-05,-4e-05,2e-05,-6e-05,-4e-05,-2e-05,-1e-05,2e-05,1,2.0
2236,-1e-05,-4e-05,2e-05,-6e-05,-4e-05,-2e-05,-1e-05,2e-05,1,2.0
2239,-1e-05,-4e-05,2e-05,-6e-05,-4e-05,-2e-05,-1e-05,2e-05,1,2.0
2240,-1e-05,-4e-05,2e-05,-6e-05,-4e-05,-2e-05,-1e-05,2e-05,1,2.0
2241,-1e-05,-4e-05,2e-05,-6e-05,-4e-05,-2e-05,-1e-05,2e-05,1,2.0
2242,-1e-05,-4e-05,2e-05,-6e-05,-4e-05,-2e-05,-1e-05,2e-05,1,2.0
2243,-1e-05,-4e-05,2e-05,-6e-05,-4e-05,-2e-05,-1e-05,2e-05,1,2.0
2244,-1e-05,-4e-05,2e-05,-6e-05,-4e-05,-2e-05,-1e-05,2e-05,1,2.0
2245,-1e-05,-4e-05,2e-05,-6e-05,-4e-05,-2e-05,-1e-05,2e-05,1,2.0
2246,-1e-05,-4e-05,2e-05,-6e-05,-4e-05,-2e-05,-1e-05,2e-05,1,2.0
2247,-1e-05,-4e-05,2e-05,-6e-05,-4e-05,-2e-05,-1e-05,2e-05,1,2.0
2248,-1e-05,-4e-05,2e-05,-6e-05,-4e-05,-2e-05,-1e-05,2e-05,1,2.0
2249,-1e-05,-4e-05,2e-05,-6e-05,-4e-05,-2e-05,-1e-05,2e-05,1,2.0
2250,-1e-05,-4e-05,2e-05,-6e-05,-4e-05,-2e-05,-1e-05,2e-05,1,2.0
2251,2e-05,2e-05,3e-05,4e-05,-0.0002,-1e-05,-4e-05,-2e-05,1,2.0
2252,2e-05,2e-05,3e-05,4e-05,-0.0002,-1e-05,-4e-05,-2e-05,1,2.0
2253,1e-05,2e-05,3e-05,-2e-05,-0.00022,-7e-05,4e-05,1e-05,1,2.0
2254,1e-05,2e-05,3e-05,-2e-05,-0.00022,-7e-05,4e-05,1e-05,1,2.0
2255,1e-05,2e-05,3e-05,-2e-05,-0.00022,-7e-05,4e-05,1e-05,1,2.0
2256,1e-05,2e-05,3e-05,-2e-05,-0.00022,-7e-05,4e-05,1e-05,1,2.0
2257,1e-05,2e-05,3e-05,-2e-05,-0.00022,-7e-05,4e-05,1e-05,1,2.0
2258,1e-05,2e-05,3e-05,-2e-05,-0.00022,-7e-05,4e-05,1e-05,1,2.0
2259,1e-05,2e-05,3e-05,-2e-05,-0.00022,-7e-05,4e-05,1e-05,1,2.0
2260,1e-05,2e-05,3e-05,-2e-05,-0.00022,-7e-05,4e-05,1e-05,1,2.0
2261,1e-05,2e-05,3e-05,-2e-05,-0.00022,-7e-05,4e-05,1e-05,1,2.0
2262,1e-05,2e-05,3e-05,-2e-05,-0.00022,-7e-05,4e-05,1e-05,1,2.0
2263,1e-05,2e-05,3e-05,-2e-05,-0.00022,-7e-05,4e-05,1e-05,1,2.0
2264,1e-05,2e-05,3e-05,-2e-05,-0.00022,-7e-05,4e-05,1e-05,1,2.0
2265,1e-05,2e-05,3e-05,-2e-05,-0.00022,-7e-05,4e-05,1e-05,1,2.0
2266,1e-05,2e-05,3e-05,-2e-05,-0.00022,-7e-05,4e-05,1e-05,1,2.0
2267,1e-05,2e-05,3e-05,-2e-05,-0.00022,-7e-05,4e-05,1e-05,1,2.0
2268,1e-05,2e-05,3e-05,-2e-05,-0.00022,-7e-05,4e-05,1e-05,1,2.0
2269,1e-05,2e-05,3e-05,-2e-05,-0.00022,-7e-05,4e-05,1e-05,1,2.0
2270,1e-05,2e-05,3e-05,-2e-05,-0.00022,-7e-05,4e-05,1e-05,1,2.0
2271,1e-05,2e-05,3e-05,-2e-05,-0.00022,-7e-05,4e-05,1e-05,1,2.0
2272,1e-05,2e-05,3e-05,-2e-05,-0.00022,-7e-05,4e-05,1e-05,1,2.0
2273,1e-05,2e-05,3e-05,-2e-05,-0.00022,-7e-05,4e-05,1e-05,1,2.0
2274,-8e-05,-4e-05,0.0,-9e-05,-0.00027,4e-05,1e-05,-3e-05,1,2.0
2275,-4e-05,-2e-05,-9e-05,-0.00014,-0.00015,-0.00012,-1e-05,-1e-05,1,2.0
2276,-4e-05,-4e-05,-0.0001,-1e-05,5e-05,3e-05,0.0,-2e-05,1,2.0
2277,-4e-05,-4e-05,-0.0001,-1e-05,5e-05,3e-05,0.0,-2e-05,1,2.0
2278,-4e-05,-4e-05,-0.0001,-1e-05,5e-05,3e-05,0.0,-2e-05,1,2.0
2279,-4e-05,-4e-05,-0.0001,-1e-05,5e-05,3e-05,0.0,-2e-05,1,2.0
2280,-4e-05,-4e-05,-0.0001,-1e-05,5e-05,3e-05,0.0,-2e-05,1,2.0
2281,-4e-05,-4e-05,-0.0001,-1e-05,5e-05,3e-05,0.0,-2e-05,1,2.0
2282,-4e-05,-4e-05,-0.0001,-1e-05,5e-05,3e-05,0.0,-2e-05,1,2.0
2283,-4e-05,-4e-05,-0.0001,-1e-05,5e-05,3e-05,0.0,-2e-05,1,2.0
2284,-4e-05,-4e-05,-0.0001,-1e-05,5e-05,3e-05,0.0,-2e-05,1,2.0
2285,-4e-05,-4e-05,-0.0001,-1e-05,5e-05,3e-05,0.0,-2e-05,1,2.0
2286,-4e-05,-4e-05,-0.0001,-1e-05,5e-05,3e-05,0.0,-2e-05,1,2.0
2289,0.0,1e-05,2e-05,0.00015,0.00043,-5e-05,0.0,-1e-05,1,2.0
2290,0.0,1e-05,2e-05,0.00015,0.00043,-5e-05,0.0,-1e-05,1,2.0
2291,0.0,1e-05,2e-05,0.00015,0.00043,-5e-05,0.0,-1e-05,1,2.0
2292,0.0,1e-05,2e-05,0.00015,0.00043,-5e-05,0.0,-1e-05,1,2.0
2293,0.0,1e-05,2e-05,0.00015,0.00043,-5e-05,0.0,-1e-05,1,2.0
2294,0.0,1e-05,2e-05,0.00015,0.00043,-5e-05,0.0,-1e-05,1,2.0
2295,2e-05,0.0,-2e-05,0.00011,-7e-05,3e-05,-1e-05,2e-05,1,2.0
2296,2e-05,0.0,-2e-05,0.00011,-7e-05,3e-05,-1e-05,2e-05,1,2.0
2297,2e-05,0.0,-2e-05,0.00011,-7e-05,3e-05,-1e-05,2e-05,1,2.0
2298,2e-05,0.0,-2e-05,0.00011,-7e-05,3e-05,-1e-05,2e-05,1,2.0
2299,2e-05,0.0,-2e-05,0.00011,-7e-05,3e-05,-1e-05,2e-05,1,2.0
2300,2e-05,0.0,-2e-05,0.00011,-7e-05,3e-05,-1e-05,2e-05,1,2.0
2301,2e-05,0.0,-2e-05,0.00011,-7e-05,3e-05,-1e-05,2e-05,1,2.0
2302,2e-05,0.0,-2e-05,0.00011,-7e-05,3e-05,-1e-05,2e-05,1,2.0
2303,2e-05,0.0,-2e-05,0.00011,-7e-05,3e-05,-1e-05,2e-05,1,2.0
2304,2e-05,0.0,-2e-05,0.00011,-7e-05,3e-05,-1e-05,2e-05,1,2.0
2305,2e-05,0.0,-2e-05,0.00011,-7e-05,3e-05,-1e-05,2e-05,1,2.0
2306,2e-05,0.0,-2e-05,0.00011,-7e-05,3e-05,-1e-05,2e-05,1,2.0
2307,2e-05,0.0,-2e-05,0.00011,-7e-05,3e-05,-1e-05,2e-05,1,2.0
2308,2e-05,0.0,-2e-05,0.00011,-7e-05,3e-05,-1e-05,2e-05,1,2.0
2309,2e-05,0.0,-2e-05,0.00011,-7e-05,3e-05,-1e-05,2e-05,1,2.0
2310,2e-05,0.0,-2e-05,0.00011,-7e-05,3e-05,-1e-05,2e-05,1,2.0
2311,0.0,-4e-05,-3e-05,-0.00016,6e-05,-5e-05,-2e-05,-1e-05,1,2.0
2312,3e-05,-6e-05,-0.0001,-0.00012,-2e-05,0.0,-3e-05,1e-05,1,2.0
2313,2e-05,1e-05,6e-05,0.00012,1e-05,4e-05,0.0,1e-05,1,2.0
2314,2e-05,1e-05,6e-05,0.00012,1e-05,4e-05,0.0,1e-05,1,2.0
2315,2e-05,1e-05,6e-05,0.00012,1e-05,4e-05,0.0,1e-05,1,2.0
2316,2e-05,1e-05,6e-05,0.00012,1e-05,4e-05,0.0,1e-05,1,2.0
2317,2e-05,1e-05,6e-05,0.00012,1e-05,4e-05,0.0,1e-05,1,2.0
2318,2e-05,1e-05,6e-05,0.00012,1e-05,4e-05,0.0,1e-05,1,2.0
2319,2e-05,1e-05,6e-05,0.00012,1e-05,4e-05,0.0,1e-05,1,2.0
2320,2e-05,1e-05,6e-05,0.00012,1e-05,4e-05,0.0,1e-05,1,2.0
2321,2e-05,1e-05,6e-05,0.00012,1e-05,4e-05,0.0,1e-05,1,2.0
2322,2e-05,1e-05,6e-05,0.00012,1e-05,4e-05,0.0,1e-05,1,2.0
2323,2e-05,1e-05,6e-05,0.00012,1e-05,4e-05,0.0,1e-05,1,2.0
2324,2e-05,1e-05,6e-05,0.00012,1e-05,4e-05,0.0,1e-05,1,2.0
2325,2e-05,1e-05,6e-05,0.00012,1e-05,4e-05,0.0,1e-05,1,2.0
2326,2e-05,1e-05,6e-05,0.00012,1e-05,4e-05,0.0,1e-05,1,2.0
2327,2e-05,1e-05,6e-05,0.00012,1e-05,4e-05,0.0,1e-05,1,2.0
2328,2e-05,1e-05,6e-05,0.00012,1e-05,4e-05,0.0,1e-05,1,2.0
2329,2e-05,1e-05,6e-05,0.00012,1e-05,4e-05,0.0,1e-05,1,2.0
2330,2e-05,1e-05,6e-05,0.00012,1e-05,4e-05,0.0,1e-05,1,2.0
2331,2e-05,1e-05,6e-05,0.00012,1e-05,4e-05,0.0,1e-05,1,2.0
2332,2e-05,1e-05,6e-05,0.00012,1e-05,4e-05,0.0,1e-05,1,2.0
2333,2e-05,1e-05,6e-05,0.00012,1e-05,4e-05,0.0,1e-05,1,2.0
2334,1e-05,-5e-05,-0.00018,-8e-05,-0.00011,-5e-05,3e-05,0.0,1,2.0
2335,-2e-05,3e-05,1e-05,-0.00013,-0.00014,-4e-05,-3e-05,-3e-05,1,2.0
2336,-2e-05,3e-05,1e-05,-0.00013,-0.00014,-4e-05,-3e-05,-3e-05,1,2.0
2339,-2e-05,3e-05,1e-05,-0.00013,-0.00014,-4e-05,-3e-05,-3e-05,1,2.0
2340,-2e-05,3e-05,1e-05,-0.00013,-0.00014,-4e-05,-3e-05,-3e-05,1,2.0
2341,-2e-05,3e-05,1e-05,-0.00013,-0.00014,-4e-05,-3e-05,-3e-05,1,2.0
2342,-2e-05,3e-05,1e-05,-0.00013,-0.00014,-4e-05,-3e-05,-3e-05,1,2.0
2343,-2e-05,3e-05,1e-05,-0.00013,-0.00014,-4e-05,-3e-05,-3e-05,1,2.0
2344,-2e-05,3e-05,1e-05,-0.00013,-0.00014,-4e-05,-3e-05,-3e-05,1,2.0
2345,-2e-05,3e-05,1e-05,-0.00013,-0.00014,-4e-05,-3e-05,-3e-05,1,2.0
2346,-2e-05,3e-05,1e-05,-0.00013,-0.00014,-4e-05,-3e-05,-3e-05,1,2.0
2347,-2e-05,3e-05,1e-05,-0.00013,-0.00014,-4e-05,-3e-05,-3e-05,1,2.0
2348,-3e-05,-1e-05,5e-05,7e-05,0.00013,9e-05,-1e-05,-1e-05,1,2.0
2349,-3e-05,-1e-05,5e-05,7e-05,0.00013,9e-05,-1e-05,-1e-05,1,2.0
2350,-3e-05,-1e-05,5e-05,7e-05,0.00013,9e-05,-1e-05,-1e-05,1,2.0
2351,-3e-05,-1e-05,5e-05,7e-05,0.00013,9e-05,-1e-05,-1e-05,1,2.0
2352,-3e-05,-1e-05,5e-05,7e-05,0.00013,9e-05,-1e-05,-1e-05,1,2.0
2353,-3e-05,-1e-05,5e-05,7e-05,0.00013,9e-05,-1e-05,-1e-05,1,2.0
2354,-3e-05,-1e-05,5e-05,7e-05,0.00013,9e-05,-1e-05,-1e-05,1,2.0
2355,-2e-05,-4e-05,-1e-05,4e-05,1e-05,0.0,-2e-05,0.0,1,2.0
2356,-2e-05,-4e-05,-1e-05,4e-05,1e-05,0.0,-2e-05,0.0,1,2.0
2357,-2e-05,-4e-05,-1e-05,4e-05,1e-05,0.0,-2e-05,0.0,1,2.0
2358,-2e-05,-4e-05,-1e-05,4e-05,1e-05,0.0,-2e-05,0.0,1,2.0
2359,-2e-05,-4e-05,-1e-05,4e-05,1e-05,0.0,-2e-05,0.0,1,2.0
2360,-2e-05,-4e-05,-1e-05,4e-05,1e-05,0.0,-2e-05,0.0,1,2.0
2361,-2e-05,-4e-05,-1e-05,4e-05,1e-05,0.0,-2e-05,0.0,1,2.0
2362,-2e-05,-4e-05,-1e-05,4e-05,1e-05,0.0,-2e-05,0.0,1,2.0
2363,-2e-05,-4e-05,-1e-05,4e-05,1e-05,0.0,-2e-05,0.0,1,2.0
2364,-2e-05,-4e-05,-1e-05,4e-05,1e-05,0.0,-2e-05,0.0,1,2.0
2365,-2e-05,-4e-05,-1e-05,4e-05,1e-05,0.0,-2e-05,0.0,1,2.0
2366,-2e-05,-4e-05,-1e-05,4e-05,1e-05,0.0,-2e-05,0.0,1,2.0
2367,-2e-05,-4e-05,-1e-05,4e-05,1e-05,0.0,-2e-05,0.0,1,2.0
2368,-2e-05,-4e-05,-1e-05,4e-05,1e-05,0.0,-2e-05,0.0,1,2.0
2369,-2e-05,-4e-05,-1e-05,4e-05,1e-05,0.0,-2e-05,0.0,1,2.0
2370,-2e-05,-4e-05,-1e-05,4e-05,1e-05,0.0,-2e-05,0.0,1,2.0
2371,-2e-05,-4e-05,-1e-05,4e-05,1e-05,0.0,-2e-05,0.0,1,2.0
2372,1e-05,3e-05,6e-05,0.00012,0.0001,-4e-05,-4e-05,2e-05,1,2.0
2373,-2e-05,-3e-05,-2e-05,-2e-05,-1e-05,-0.0001,-2e-05,-3e-05,1,2.0
2374,-2e-05,-3e-05,-2e-05,-2e-05,-1e-05,-0.0001,-2e-05,-3e-05,1,2.0
2375,-2e-05,-3e-05,-2e-05,-2e-05,-1e-05,-0.0001,-2e-05,-3e-05,1,2.0
2376,-2e-05,-3e-05,-2e-05,-2e-05,-1e-05,-0.0001,-2e-05,-3e-05,1,2.0
2377,-2e-05,-3e-05,-2e-05,-2e-05,-1e-05,-0.0001,-2e-05,-3e-05,1,2.0
2378,-2e-05,-3e-05,-2e-05,-2e-05,-1e-05,-0.0001,-2e-05,-3e-05,1,2.0
2379,-2e-05,-3e-05,-2e-05,-2e-05,-1e-05,-0.0001,-2e-05,-3e-05,1,2.0
2380,-2e-05,-3e-05,-2e-05,-2e-05,-1e-05,-0.0001,-2e-05,-3e-05,1,2.0
2381,-2e-05,-3e-05,-2e-05,-2e-05,-1e-05,-0.0001,-2e-05,-3e-05,1,2.0
2382,-2e-05,-3e-05,-2e-05,-2e-05,-1e-05,-0.0001,-2e-05,-3e-05,1,2.0
2383,-2e-05,-3e-05,-2e-05,-2e-05,-1e-05,-0.0001,-2e-05,-3e-05,1,2.0
2384,-2e-05,-3e-05,-2e-05,-2e-05,-1e-05,-0.0001,-2e-05,-3e-05,1,2.0
2385,-2e-05,-3e-05,-2e-05,-2e-05,-1e-05,-0.0001,-2e-05,-3e-05,1,2.0
2386,-2e-05,-3e-05,-2e-05,-2e-05,-1e-05,-0.0001,-2e-05,-3e-05,1,2.0
2388,-2e-05,-3e-05,-2e-05,-2e-05,-1e-05,-0.0001,-2e-05,-3e-05,1,2.0
2389,-2e-05,-3e-05,-2e-05,-2e-05,-1e-05,-0.0001,-2e-05,-3e-05,1,2.0
2390,-2e-05,-3e-05,-2e-05,-2e-05,-1e-05,-0.0001,-2e-05,-3e-05,1,2.0
2391,-2e-05,-3e-05,-2e-05,-2e-05,-1e-05,-0.0001,-2e-05,-3e-05,1,2.0
2392,-2e-05,-3e-05,-2e-05,-2e-05,-1e-05,-0.0001,-2e-05,-3e-05,1,2.0
2393,-2e-05,-3e-05,-2e-05,-2e-05,-1e-05,-0.0001,-2e-05,-3e-05,1,2.0
2394,1e-05,-2e-05,-3e-05,6e-05,6e-05,-1e-05,0.0,1e-05,1,2.0
2395,-2e-05,2e-05,-1e-05,-0.00013,-0.00023,-1e-05,-2e-05,-3e-05,1,2.0
2396,0.0,1e-05,5e-05,0.00021,0.00032,4e-05,3e-05,0.0,1,2.0
2397,0.0,1e-05,5e-05,0.00021,0.00032,4e-05,3e-05,0.0,1,2.0
2398,0.0,1e-05,5e-05,0.00021,0.00032,4e-05,3e-05,0.0,1,2.0
2399,0.0,1e-05,5e-05,0.00021,0.00032,4e-05,3e-05,0.0,1,2.0
2400,0.0,1e-05,5e-05,0.00021,0.00032,4e-05,3e-05,0.0,1,2.0
2401,0.0,1e-05,5e-05,0.00021,0.00032,4e-05,3e-05,0.0,1,2.0
2402,0.0,1e-05,5e-05,0.00021,0.00032,4e-05,3e-05,0.0,1,2.0
2403,0.0,1e-05,5e-05,0.00021,0.00032,4e-05,3e-05,0.0,1,2.0
2404,0.0,1e-05,5e-05,0.00021,0.00032,4e-05,3e-05,0.0,1,2.0
2405,0.0,1e-05,5e-05,0.00021,0.00032,4e-05,3e-05,0.0,1,2.0
2406,0.0,1e-05,5e-05,0.00021,0.00032,4e-05,3e-05,0.0,1,2.0
2407,0.0,1e-05,5e-05,0.00021,0.00032,4e-05,3e-05,0.0,1,2.0
2408,-3e-05,1e-05,-1e-05,2e-05,-5e-05,-1e-05,-1e-05,-3e-05,1,2.0
2409,-3e-05,1e-05,-1e-05,2e-05,-5e-05,-1e-05,-1e-05,-3e-05,1,2.0
2410,-3e-05,1e-05,-1e-05,2e-05,-5e-05,-1e-05,-1e-05,-3e-05,1,2.0
2411,-3e-05,1e-05,-1e-05,2e-05,-5e-05,-1e-05,-1e-05,-3e-05,1,2.0
2412,-3e-05,1e-05,-1e-05,2e-05,-5e-05,-1e-05,-1e-05,-3e-05,1,2.0
2413,-3e-05,1e-05,-1e-05,2e-05,-5e-05,-1e-05,-1e-05,-3e-05,1,2.0
2414,-3e-05,1e-05,-1e-05,2e-05,-5e-05,-1e-05,-1e-05,-3e-05,1,2.0
2415,1e-05,-2e-05,-0.00011,-0.00018,-7e-05,3e-05,-3e-05,0.0,1,2.0
2416,1e-05,-2e-05,-0.00011,-0.00018,-7e-05,3e-05,-3e-05,0.0,1,2.0
2417,1e-05,-2e-05,-0.00011,-0.00018,-7e-05,3e-05,-3e-05,0.0,1,2.0
2418,1e-05,-2e-05,-0.00011,-0.00018,-7e-05,3e-05,-3e-05,0.0,1,2.0
2419,1e-05,-2e-05,-0.00011,-0.00018,-7e-05,3e-05,-3e-05,0.0,1,2.0
2420,1e-05,-2e-05,-0.00011,-0.00018,-7e-05,3e-05,-3e-05,0.0,1,2.0
2421,1e-05,-2e-05,-0.00011,-0.00018,-7e-05,3e-05,-3e-05,0.0,1,2.0
2422,1e-05,-2e-05,-0.00011,-0.00018,-7e-05,3e-05,-3e-05,0.0,1,2.0
2423,1e-05,-2e-05,-0.00011,-0.00018,-7e-05,3e-05,-3e-05,0.0,1,2.0
2424,1e-05,-2e-05,-0.00011,-0.00018,-7e-05,3e-05,-3e-05,0.0,1,2.0
2425,1e-05,-2e-05,-0.00011,-0.00018,-7e-05,3e-05,-3e-05,0.0,1,2.0
2426,1e-05,-2e-05,-0.00011,-0.00018,-7e-05,3e-05,-3e-05,0.0,1,2.0
2427,1e-05,-2e-05,-0.00011,-0.00018,-7e-05,3e-05,-3e-05,0.0,1,2.0
2428,1e-05,-2e-05,-0.00011,-0.00018,-7e-05,3e-05,-3e-05,0.0,1,2.0
2429,1e-05,-2e-05,-0.00011,-0.00018,-7e-05,3e-05,-3e-05,0.0,1,2.0
2430,1e-05,-2e-05,-0.00011,-0.00018,-7e-05,3e-05,-3e-05,0.0,1,2.0
2431,1e-05,2e-05,4e-05,-1e-05,4e-05,-1e-05,-3e-05,-3e-05,1,2.0
2432,1e-05,2e-05,4e-05,-1e-05,4e-05,-1e-05,-3e-05,-3e-05,1,2.0
2433,1e-05,1e-05,-2e-05,2e-05,-4e-05,0.0,1e-05,-1e-05,1,2.0
2434,1e-05,1e-05,-2e-05,2e-05,-4e-05,0.0,1e-05,-1e-05,1,2.0
2435,1e-05,1e-05,-2e-05,2e-05,-4e-05,0.0,1e-05,-1e-05,1,2.0
2436,1e-05,1e-05,-2e-05,2e-05,-4e-05,0.0,1e-05,-1e-05,1,2.0
2438,1e-05,1e-05,-2e-05,2e-05,-4e-05,0.0,1e-05,-1e-05,1,2.0
2439,1e-05,1e-05,-2e-05,2e-05,-4e-05,0.0,1e-05,-1e-05,1,2.0
2440,1e-05,1e-05,-2e-05,2e-05,-4e-05,0.0,1e-05,-1e-05,1,2.0
2441,1e-05,1e-05,-2e-05,2e-05,-4e-05,0.0,1e-05,-1e-05,1,2.0
2442,1e-05,1e-05,-2e-05,2e-05,-4e-05,0.0,1e-05,-1e-05,1,2.0
2443,1e-05,1e-05,-2e-05,2e-05,-4e-05,0.0,1e-05,-1e-05,1,2.0
2444,1e-05,1e-05,-2e-05,2e-05,-4e-05,0.0,1e-05,-1e-05,1,2.0
2445,1e-05,1e-05,-2e-05,2e-05,-4e-05,0.0,1e-05,-1e-05,1,2.0
2446,1e-05,1e-05,-2e-05,2e-05,-4e-05,0.0,1e-05,-1e-05,1,2.0
2447,1e-05,1e-05,-2e-05,2e-05,-4e-05,0.0,1e-05,-1e-05,1,2.0
2448,1e-05,1e-05,-2e-05,2e-05,-4e-05,0.0,1e-05,-1e-05,1,2.0
2449,1e-05,1e-05,-2e-05,2e-05,-4e-05,0.0,1e-05,-1e-05,1,2.0
2450,1e-05,1e-05,-2e-05,2e-05,-4e-05,0.0,1e-05,-1e-05,1,2.0
2451,1e-05,1e-05,-2e-05,2e-05,-4e-05,0.0,1e-05,-1e-05,1,2.0
2452,1e-05,1e-05,-2e-05,2e-05,-4e-05,0.0,1e-05,-1e-05,1,2.0
2453,1e-05,1e-05,-2e-05,2e-05,-4e-05,0.0,1e-05,-1e-05,1,2.0
2454,-3e-05,-2e-05,2e-05,-5e-05,-0.0001,2e-05,-1e-05,2e-05,1,2.0
2455,-1e-05,-2e-05,-5e-05,-0.0001,-7e-05,-7e-05,-3e-05,-7e-05,1,2.0
2456,-4e-05,-5e-05,-7e-05,0.00013,0.00011,2e-05,1e-05,-2e-05,1,2.0
2457,-4e-05,-5e-05,-7e-05,0.00013,0.00011,2e-05,1e-05,-2e-05,1,2.0
2458,-4e-05,-5e-05,-7e-05,0.00013,0.00011,2e-05,1e-05,-2e-05,1,2.0
2459,-4e-05,-5e-05,-7e-05,0.00013,0.00011,2e-05,1e-05,-2e-05,1,2.0
2460,-4e-05,-5e-05,-7e-05,0.00013,0.00011,2e-05,1e-05,-2e-05,1,2.0
2461,-4e-05,-5e-05,-7e-05,0.00013,0.00011,2e-05,1e-05,-2e-05,1,2.0
2462,-4e-05,-5e-05,-7e-05,0.00013,0.00011,2e-05,1e-05,-2e-05,1,2.0
2463,-4e-05,-5e-05,-7e-05,0.00013,0.00011,2e-05,1e-05,-2e-05,1,2.0
2464,-4e-05,-5e-05,-7e-05,0.00013,0.00011,2e-05,1e-05,-2e-05,1,2.0
2465,-4e-05,-5e-05,-7e-05,0.00013,0.00011,2e-05,1e-05,-2e-05,1,2.0
2466,-4e-05,-5e-05,-7e-05,0.00013,0.00011,2e-05,1e-05,-2e-05,1,2.0
2467,2e-05,5e-05,8e-05,-1e-05,-0.00029,2e-05,-1e-05,1e-05,1,2.0
2468,-6e-05,-1e-05,-4e-05,3e-05,0.00035,2e-05,1e-05,-1e-05,1,2.0
2469,-6e-05,-1e-05,-4e-05,3e-05,0.00035,2e-05,1e-05,-1e-05,1,2.0
2470,-6e-05,-1e-05,-4e-05,3e-05,0.00035,2e-05,1e-05,-1e-05,1,2.0
2471,-6e-05,-1e-05,-4e-05,3e-05,0.00035,2e-05,1e-05,-1e-05,1,2.0
2472,-6e-05,-1e-05,-4e-05,3e-05,0.00035,2e-05,1e-05,-1e-05,1,2.0
2473,-6e-05,-1e-05,-4e-05,3e-05,0.00035,2e-05,1e-05,-1e-05,1,2.0
2474,-6e-05,-1e-05,-4e-05,3e-05,0.00035,2e-05,1e-05,-1e-05,1,2.0
2475,-6e-05,-1e-05,-4e-05,3e-05,0.00035,2e-05,1e-05,-1e-05,1,2.0
2476,-6e-05,-1e-05,-4e-05,3e-05,0.00035,2e-05,1e-05,-1e-05,1,2.0
2477,5e-05,1e-05,3e-05,-7e-05,-3e-05,6e-05,-4e-05,0.0,1,2.0
2478,5e-05,1e-05,3e-05,-7e-05,-3e-05,6e-05,-4e-05,0.0,1,2.0
2479,5e-05,1e-05,3e-05,-7e-05,-3e-05,6e-05,-4e-05,0.0,1,2.0
2480,5e-05,1e-05,3e-05,-7e-05,-3e-05,6e-05,-4e-05,0.0,1,2.0
2481,5e-05,1e-05,3e-05,-7e-05,-3e-05,6e-05,-4e-05,0.0,1,2.0
2482,5e-05,1e-05,3e-05,-7e-05,-3e-05,6e-05,-4e-05,0.0,1,2.0
2483,5e-05,1e-05,3e-05,-7e-05,-3e-05,6e-05,-4e-05,0.0,1,2.0
2484,5e-05,1e-05,3e-05,-7e-05,-3e-05,6e-05,-4e-05,0.0,1,2.0
2485,5e-05,1e-05,3e-05,-7e-05,-3e-05,6e-05,-4e-05,0.0,1,2.0
2486,5e-05,1e-05,3e-05,-7e-05,-3e-05,6e-05,-4e-05,0.0,1,2.0
2488,5e-05,1e-05,3e-05,-7e-05,-3e-05,6e-05,-4e-05,0.0,1,2.0
2489,5e-05,1e-05,3e-05,-7e-05,-3e-05,6e-05,-4e-05,0.0,1,2.0
2490,5e-05,1e-05,3e-05,-7e-05,-3e-05,6e-05,-4e-05,0.0,1,2.0
2491,-1e-05,1e-05,0.00011,3e-05,-0.00012,-2e-05,2e-05,-1e-05,1,2.0
2492,-1e-05,1e-05,0.00011,3e-05,-0.00012,-2e-05,2e-05,-1e-05,1,2.0
2493,-6e-05,-3e-05,-9e-05,-9e-05,5e-05,-2e-05,-1e-05,-1e-05,1,2.0
2494,-6e-05,-3e-05,-9e-05,-9e-05,5e-05,-2e-05,-1e-05,-1e-05,1,2.0
2495,-6e-05,-3e-05,-9e-05,-9e-05,5e-05,-2e-05,-1e-05,-1e-05,1,2.0
2496,-6e-05,-3e-05,-9e-05,-9e-05,5e-05,-2e-05,-1e-05,-1e-05,1,2.0
2497,-6e-05,-3e-05,-9e-05,-9e-05,5e-05,-2e-05,-1e-05,-1e-05,1,2.0
2498,-6e-05,-3e-05,-9e-05,-9e-05,5e-05,-2e-05,-1e-05,-1e-05,1,2.0
2499,-6e-05,-3e-05,-9e-05,-9e-05,5e-05,-2e-05,-1e-05,-1e-05,1,2.0
2500,-6e-05,-3e-05,-9e-05,-9e-05,5e-05,-2e-05,-1e-05,-1e-05,1,2.0
2501,-6e-05,-3e-05,-9e-05,-9e-05,5e-05,-2e-05,-1e-05,-1e-05,1,2.0
2502,-6e-05,-3e-05,-9e-05,-9e-05,5e-05,-2e-05,-1e-05,-1e-05,1,2.0
2503,-6e-05,-3e-05,-9e-05,-9e-05,5e-05,-2e-05,-1e-05,-1e-05,1,2.0
2504,-6e-05,-3e-05,-9e-05,-9e-05,5e-05,-2e-05,-1e-05,-1e-05,1,2.0
2505,-6e-05,-3e-05,-9e-05,-9e-05,5e-05,-2e-05,-1e-05,-1e-05,1,2.0
2506,-6e-05,-3e-05,-9e-05,-9e-05,5e-05,-2e-05,-1e-05,-1e-05,1,2.0
2507,-6e-05,-3e-05,-9e-05,-9e-05,5e-05,-2e-05,-1e-05,-1e-05,1,2.0
2508,-6e-05,-3e-05,-9e-05,-9e-05,5e-05,-2e-05,-1e-05,-1e-05,1,2.0
2509,-6e-05,-3e-05,-9e-05,-9e-05,5e-05,-2e-05,-1e-05,-1e-05,1,2.0
2510,-6e-05,-3e-05,-9e-05,-9e-05,5e-05,-2e-05,-1e-05,-1e-05,1,2.0
2511,-6e-05,-3e-05,-9e-05,-9e-05,5e-05,-2e-05,-1e-05,-1e-05,1,2.0
2512,-6e-05,-3e-05,-9e-05,-9e-05,5e-05,-2e-05,-1e-05,-1e-05,1,2.0
2513,-6e-05,-3e-05,-9e-05,-9e-05,5e-05,-2e-05,-1e-05,-1e-05,1,2.0
2514,3e-05,0.0,2e-05,0.00013,0.0001,1e-05,1e-05,1e-05,1,2.0
2515,-6e-05,-5e-05,-3e-05,4e-05,-3e-05,4e-05,-4e-05,-2e-05,1,2.0
2516,3e-05,7e-05,0.00013,1e-05,-0.00016,0.00011,-2e-05,1e-05,1,2.0
2517,3e-05,7e-05,0.00013,1e-05,-0.00016,0.00011,-2e-05,1e-05,1,2.0
2518,3e-05,7e-05,0.00013,1e-05,-0.00016,0.00011,-2e-05,1e-05,1,2.0
2519,3e-05,7e-05,0.00013,1e-05,-0.00016,0.00011,-2e-05,1e-05,1,2.0
2520,3e-05,7e-05,0.00013,1e-05,-0.00016,0.00011,-2e-05,1e-05,1,2.0
2521,3e-05,7e-05,0.00013,1e-05,-0.00016,0.00011,-2e-05,1e-05,1,2.0
2522,3e-05,7e-05,0.00013,1e-05,-0.00016,0.00011,-2e-05,1e-05,1,2.0
2523,3e-05,7e-05,0.00013,1e-05,-0.00016,0.00011,-2e-05,1e-05,1,2.0
2524,3e-05,7e-05,0.00013,1e-05,-0.00016,0.00011,-2e-05,1e-05,1,2.0
2525,3e-05,7e-05,0.00013,1e-05,-0.00016,0.00011,-2e-05,1e-05,1,2.0
2526,3e-05,7e-05,0.00013,1e-05,-0.00016,0.00011,-2e-05,1e-05,1,2.0
2527,0.0,0.0,-0.0001,-0.00011,0.00035,5e-05,1e-05,-1e-05,1,2.0
2528,1e-05,0.0,2e-05,6e-05,-0.00029,-4e-05,0.0,-6e-05,1,2.0
2529,1e-05,0.0,2e-05,6e-05,-0.00029,-4e-05,0.0,-6e-05,1,2.0
2530,1e-05,0.0,2e-05,6e-05,-0.00029,-4e-05,0.0,-6e-05,1,2.0
2531,1e-05,0.0,2e-05,6e-05,-0.00029,-4e-05,0.0,-6e-05,1,2.0
2532,1e-05,0.0,2e-05,6e-05,-0.00029,-4e-05,0.0,-6e-05,1,2.0
2533,1e-05,0.0,2e-05,6e-05,-0.00029,-4e-05,0.0,-6e-05,1,2.0
2534,1e-05,0.0,2e-05,6e-05,-0.00029,-4e-05,0.0,-6e-05,1,2.0
2535,1e-05,0.0,2e-05,6e-05,-0.00029,-4e-05,0.0,-6e-05,1,2.0
2536,1e-05,-4e-05,-0.00011,-6e-05,0.00012,-4e-05,-1e-05,-1e-05,1,2.0
2538,-5e-05,-4e-05,-8e-05,-3e-05,-7e-05,-3e-05,-5e-05,-3e-05,1,2.0
2539,-5e-05,-4e-05,-8e-05,-3e-05,-7e-05,-3e-05,-5e-05,-3e-05,1,2.0
2540,-5e-05,-4e-05,-8e-05,-3e-05,-7e-05,-3e-05,-5e-05,-3e-05,1,2.0
2541,-5e-05,-4e-05,-8e-05,-3e-05,-7e-05,-3e-05,-5e-05,-3e-05,1,2.0
2542,-5e-05,-4e-05,-8e-05,-3e-05,-7e-05,-3e-05,-5e-05,-3e-05,1,2.0
2543,-5e-05,-4e-05,-8e-05,-3e-05,-7e-05,-3e-05,-5e-05,-3e-05,1,2.0
2544,-5e-05,-4e-05,-8e-05,-3e-05,-7e-05,-3e-05,-5e-05,-3e-05,1,2.0
2545,-5e-05,-4e-05,-8e-05,-3e-05,-7e-05,-3e-05,-5e-05,-3e-05,1,2.0
2546,-5e-05,-4e-05,-8e-05,-3e-05,-7e-05,-3e-05,-5e-05,-3e-05,1,2.0
2547,-5e-05,-4e-05,-8e-05,-3e-05,-7e-05,-3e-05,-5e-05,-3e-05,1,2.0
2548,-5e-05,-4e-05,-8e-05,-3e-05,-7e-05,-3e-05,-5e-05,-3e-05,1,2.0
2549,-5e-05,-4e-05,-8e-05,-3e-05,-7e-05,-3e-05,-5e-05,-3e-05,1,2.0
2550,-5e-05,-4e-05,-8e-05,-3e-05,-7e-05,-3e-05,-5e-05,-3e-05,1,2.0
2551,0.0,-2e-05,-1e-05,-5e-05,-0.00013,0.0,-2e-05,0.0,1,2.0
2552,0.0,-2e-05,-1e-05,-5e-05,-0.00013,0.0,-2e-05,0.0,1,2.0
2553,3e-05,2e-05,4e-05,6e-05,-0.00018,-5e-05,-1e-05,-1e-05,1,2.0
2554,3e-05,2e-05,4e-05,6e-05,-0.00018,-5e-05,-1e-05,-1e-05,1,2.0
2555,3e-05,2e-05,4e-05,6e-05,-0.00018,-5e-05,-1e-05,-1e-05,1,2.0
2556,3e-05,2e-05,4e-05,6e-05,-0.00018,-5e-05,-1e-05,-1e-05,1,2.0
2557,3e-05,2e-05,4e-05,6e-05,-0.00018,-5e-05,-1e-05,-1e-05,1,2.0
2558,3e-05,2e-05,4e-05,6e-05,-0.00018,-5e-05,-1e-05,-1e-05,1,2.0
2559,3e-05,2e-05,4e-05,6e-05,-0.00018,-5e-05,-1e-05,-1e-05,1,2.0
2560,3e-05,2e-05,4e-05,6e-05,-0.00018,-5e-05,-1e-05,-1e-05,1,2.0
2561,3e-05,2e-05,4e-05,6e-05,-0.00018,-5e-05,-1e-05,-1e-05,1,2.0
2562,3e-05,2e-05,4e-05,6e-05,-0.00018,-5e-05,-1e-05,-1e-05,1,2.0
2563,3e-05,2e-05,4e-05,6e-05,-0.00018,-5e-05,-1e-05,-1e-05,1,2.0
2564,3e-05,2e-05,4e-05,6e-05,-0.00018,-5e-05,-1e-05,-1e-05,1,2.0
2565,3e-05,2e-05,4e-05,6e-05,-0.00018,-5e-05,-1e-05,-1e-05,1,2.0
2566,3e-05,2e-05,4e-05,6e-05,-0.00018,-5e-05,-1e-05,-1e-05,1,2.0
2567,3e-05,2e-05,4e-05,6e-05,-0.00018,-5e-05,-1e-05,-1e-05,1,2.0
2568,3e-05,2e-05,4e-05,6e-05,-0.00018,-5e-05,-1e-05,-1e-05,1,2.0
2569,3e-05,2e-05,4e-05,6e-05,-0.00018,-5e-05,-1e-05,-1e-05,1,2.0
2570,3e-05,2e-05,4e-05,6e-05,-0.00018,-5e-05,-1e-05,-1e-05,1,2.0
2571,3e-05,2e-05,4e-05,6e-05,-0.00018,-5e-05,-1e-05,-1e-05,1,2.0
2572,3e-05,2e-05,4e-05,6e-05,-0.00018,-5e-05,-1e-05,-1e-05,1,2.0
2573,3e-05,2e-05,4e-05,6e-05,-0.00018,-5e-05,-1e-05,-1e-05,1,2.0
2574,0.0,-3e-05,-3e-05,-4e-05,0.00013,-7e-05,2e-05,1e-05,1,2.0
2575,0.0,-3e-05,-3e-05,-4e-05,0.00013,-7e-05,2e-05,1e-05,1,2.0
2576,0.0,-3e-05,-3e-05,-4e-05,0.00013,-7e-05,2e-05,1e-05,1,2.0
2577,0.0,-3e-05,-3e-05,-4e-05,0.00013,-7e-05,2e-05,1e-05,1,2.0
2578,0.0,-3e-05,-3e-05,-4e-05,0.00013,-7e-05,2e-05,1e-05,1,2.0
2579,0.0,-3e-05,-3e-05,-4e-05,0.00013,-7e-05,2e-05,1e-05,1,2.0
2580,-3e-05,-5e-05,-8e-05,-8e-05,1e-05,-3e-05,2e-05,0.0,1,2.0
2581,-3e-05,-5e-05,-8e-05,-8e-05,1e-05,-3e-05,2e-05,0.0,1,2.0
2582,-3e-05,-5e-05,-8e-05,-8e-05,1e-05,-3e-05,2e-05,0.0,1,2.0
2583,-3e-05,-5e-05,-8e-05,-8e-05,1e-05,-3e-05,2e-05,0.0,1,2.0
2584,-3e-05,-5e-05,-8e-05,-8e-05,1e-05,-3e-05,2e-05,0.0,1,2.0
2585,-3e-05,-5e-05,-8e-05,-8e-05,1e-05,-3e-05,2e-05,0.0,1,2.0
2586,-3e-05,-5e-05,-8e-05,-8e-05,1e-05,-3e-05,2e-05,0.0,1,2.0
2588,0.0,4e-05,8e-05,1e-05,-0.0002,0.00011,1e-05,2e-05,1,2.0
2589,0.0,4e-05,8e-05,1e-05,-0.0002,0.00011,1e-05,2e-05,1,2.0
2590,0.0,4e-05,8e-05,1e-05,-0.0002,0.00011,1e-05,2e-05,1,2.0
2591,0.0,4e-05,8e-05,1e-05,-0.0002,0.00011,1e-05,2e-05,1,2.0
2592,0.0,4e-05,8e-05,1e-05,-0.0002,0.00011,1e-05,2e-05,1,2.0
2593,0.0,4e-05,8e-05,1e-05,-0.0002,0.00011,1e-05,2e-05,1,2.0
2594,0.0,4e-05,8e-05,1e-05,-0.0002,0.00011,1e-05,2e-05,1,2.0
2595,0.0,4e-05,8e-05,1e-05,-0.0002,0.00011,1e-05,2e-05,1,2.0
2596,7e-05,1e-05,0.0,3e-05,0.0002,8e-05,-3e-05,0.0,1,2.0
2597,-7e-05,-6e-05,-9e-05,-0.00012,-0.00014,-3e-05,-2e-05,-3e-05,1,2.0
2599,-7e-05,-6e-05,-9e-05,-0.00012,-0.00014,-3e-05,-2e-05,-3e-05,1,2.0
2600,-7e-05,-6e-05,-9e-05,-0.00012,-0.00014,-3e-05,-2e-05,-3e-05,1,2.0
2601,-7e-05,-6e-05,-9e-05,-0.00012,-0.00014,-3e-05,-2e-05,-3e-05,1,2.0
2602,-7e-05,-6e-05,-9e-05,-0.00012,-0.00014,-3e-05,-2e-05,-3e-05,1,2.0
2603,-7e-05,-6e-05,-9e-05,-0.00012,-0.00014,-3e-05,-2e-05,-3e-05,1,2.0
2604,-7e-05,-6e-05,-9e-05,-0.00012,-0.00014,-3e-05,-2e-05,-3e-05,1,2.0
2605,-7e-05,-6e-05,-9e-05,-0.00012,-0.00014,-3e-05,-2e-05,-3e-05,1,2.0
2606,-7e-05,-6e-05,-9e-05,-0.00012,-0.00014,-3e-05,-2e-05,-3e-05,1,2.0
2607,-7e-05,-6e-05,-9e-05,-0.00012,-0.00014,-3e-05,-2e-05,-3e-05,1,2.0
2608,-7e-05,-6e-05,-9e-05,-0.00012,-0.00014,-3e-05,-2e-05,-3e-05,1,2.0
2609,-7e-05,-6e-05,-9e-05,-0.00012,-0.00014,-3e-05,-2e-05,-3e-05,1,2.0
2610,-7e-05,-6e-05,-9e-05,-0.00012,-0.00014,-3e-05,-2e-05,-3e-05,1,2.0
2611,3e-05,-4e-05,-4e-05,-0.00012,-0.00032,0.0,-3e-05,-2e-05,1,2.0
2612,3e-05,-4e-05,-4e-05,-0.00012,-0.00032,0.0,-3e-05,-2e-05,1,2.0
2613,-2e-05,-6e-05,-3e-05,0.00011,0.00016,-9e-05,1e-05,-2e-05,1,2.0
2614,-2e-05,-6e-05,-3e-05,0.00011,0.00016,-9e-05,1e-05,-2e-05,1,2.0
2615,-2e-05,-6e-05,-3e-05,0.00011,0.00016,-9e-05,1e-05,-2e-05,1,2.0
2616,-2e-05,-6e-05,-3e-05,0.00011,0.00016,-9e-05,1e-05,-2e-05,1,2.0
2617,-2e-05,-6e-05,-3e-05,0.00011,0.00016,-9e-05,1e-05,-2e-05,1,2.0
2618,-2e-05,-6e-05,-3e-05,0.00011,0.00016,-9e-05,1e-05,-2e-05,1,2.0
2619,-2e-05,-6e-05,-3e-05,0.00011,0.00016,-9e-05,1e-05,-2e-05,1,2.0
2620,-2e-05,-6e-05,-3e-05,0.00011,0.00016,-9e-05,1e-05,-2e-05,1,2.0
2621,-2e-05,-6e-05,-3e-05,0.00011,0.00016,-9e-05,1e-05,-2e-05,1,2.0
2622,-2e-05,-6e-05,-3e-05,0.00011,0.00016,-9e-05,1e-05,-2e-05,1,2.0
2623,-2e-05,-6e-05,-3e-05,0.00011,0.00016,-9e-05,1e-05,-2e-05,1,2.0
2624,-2e-05,-6e-05,-3e-05,0.00011,0.00016,-9e-05,1e-05,-2e-05,1,2.0
2625,-2e-05,-6e-05,-3e-05,0.00011,0.00016,-9e-05,1e-05,-2e-05,1,2.0
2626,-2e-05,-6e-05,-3e-05,0.00011,0.00016,-9e-05,1e-05,-2e-05,1,2.0
2627,-2e-05,-6e-05,-3e-05,0.00011,0.00016,-9e-05,1e-05,-2e-05,1,2.0
2628,-2e-05,-6e-05,-3e-05,0.00011,0.00016,-9e-05,1e-05,-2e-05,1,2.0
2629,-2e-05,-6e-05,-3e-05,0.00011,0.00016,-9e-05,1e-05,-2e-05,1,2.0
2630,-2e-05,-6e-05,-3e-05,0.00011,0.00016,-9e-05,1e-05,-2e-05,1,2.0
2631,-2e-05,-6e-05,-3e-05,0.00011,0.00016,-9e-05,1e-05,-2e-05,1,2.0
2632,-2e-05,-6e-05,-3e-05,0.00011,0.00016,-9e-05,1e-05,-2e-05,1,2.0
2633,-2e-05,-6e-05,-3e-05,0.00011,0.00016,-9e-05,1e-05,-2e-05,1,2.0
2634,-1e-05,-2e-05,-5e-05,-0.00023,-7e-05,-6e-05,-2e-05,-4e-05,1,2.0
2635,-2e-05,-3e-05,-4e-05,-3e-05,-9e-05,-1e-05,-4e-05,-4e-05,1,2.0
2636,1e-05,1e-05,3e-05,-3e-05,0.0,5e-05,0.0,-1e-05,1,2.0
2638,1e-05,1e-05,3e-05,-3e-05,0.0,5e-05,0.0,-1e-05,1,2.0
2639,1e-05,1e-05,3e-05,-3e-05,0.0,5e-05,0.0,-1e-05,1,2.0
2640,1e-05,1e-05,3e-05,-3e-05,0.0,5e-05,0.0,-1e-05,1,2.0
2641,1e-05,1e-05,3e-05,-3e-05,0.0,5e-05,0.0,-1e-05,1,2.0
2642,1e-05,1e-05,3e-05,-3e-05,0.0,5e-05,0.0,-1e-05,1,2.0
2643,1e-05,1e-05,3e-05,-3e-05,0.0,5e-05,0.0,-1e-05,1,2.0
2644,1e-05,1e-05,3e-05,-3e-05,0.0,5e-05,0.0,-1e-05,1,2.0
2645,1e-05,1e-05,3e-05,-3e-05,0.0,5e-05,0.0,-1e-05,1,2.0
2646,1e-05,1e-05,3e-05,-3e-05,0.0,5e-05,0.0,-1e-05,1,2.0
2647,-3e-05,-1e-05,-1e-05,3e-05,-2e-05,0.0,1e-05,0.0,1,2.0
2648,-3e-05,-4e-05,-2e-05,-5e-05,0.00015,-5e-05,-3e-05,-8e-05,1,2.0
2649,-3e-05,-4e-05,-2e-05,-5e-05,0.00015,-5e-05,-3e-05,-8e-05,1,2.0
2650,-3e-05,-4e-05,-2e-05,-5e-05,0.00015,-5e-05,-3e-05,-8e-05,1,2.0
2651,-3e-05,-4e-05,-2e-05,-5e-05,0.00015,-5e-05,-3e-05,-8e-05,1,2.0
2652,-3e-05,-4e-05,-2e-05,-5e-05,0.00015,-5e-05,-3e-05,-8e-05,1,2.0
2653,-3e-05,-4e-05,-2e-05,-5e-05,0.00015,-5e-05,-3e-05,-8e-05,1,2.0
2654,-3e-05,-4e-05,-2e-05,-5e-05,0.00015,-5e-05,-3e-05,-8e-05,1,2.0
2655,-3e-05,-4e-05,-2e-05,-5e-05,0.00015,-5e-05,-3e-05,-8e-05,1,2.0
2656,-3e-05,-4e-05,-2e-05,-5e-05,0.00015,-5e-05,-3e-05,-8e-05,1,2.0
2657,3e-05,2e-05,3e-05,-3e-05,4e-05,-3e-05,-5e-05,-1e-05,1,2.0
2658,3e-05,2e-05,3e-05,-3e-05,4e-05,-3e-05,-5e-05,-1e-05,1,2.0
2659,3e-05,2e-05,3e-05,-3e-05,4e-05,-3e-05,-5e-05,-1e-05,1,2.0
2660,3e-05,2e-05,3e-05,-3e-05,4e-05,-3e-05,-5e-05,-1e-05,1,2.0
2661,3e-05,2e-05,3e-05,-3e-05,4e-05,-3e-05,-5e-05,-1e-05,1,2.0
2662,3e-05,2e-05,3e-05,-3e-05,4e-05,-3e-05,-5e-05,-1e-05,1,2.0
2663,3e-05,2e-05,3e-05,-3e-05,4e-05,-3e-05,-5e-05,-1e-05,1,2.0
2664,3e-05,2e-05,3e-05,-3e-05,4e-05,-3e-05,-5e-05,-1e-05,1,2.0
2665,3e-05,2e-05,3e-05,-3e-05,4e-05,-3e-05,-5e-05,-1e-05,1,2.0
2666,3e-05,2e-05,3e-05,-3e-05,4e-05,-3e-05,-5e-05,-1e-05,1,2.0
2667,3e-05,2e-05,3e-05,-3e-05,4e-05,-3e-05,-5e-05,-1e-05,1,2.0
2668,3e-05,2e-05,3e-05,-3e-05,4e-05,-3e-05,-5e-05,-1e-05,1,2.0
2669,3e-05,2e-05,3e-05,-3e-05,4e-05,-3e-05,-5e-05,-1e-05,1,2.0
2670,3e-05,2e-05,3e-05,-3e-05,4e-05,-3e-05,-5e-05,-1e-05,1,2.0
2671,0.0,0.0,-4e-05,6e-05,1e-05,-5e-05,-1e-05,0.0,1,2.0
2672,0.0,0.0,-4e-05,6e-05,1e-05,-5e-05,-1e-05,0.0,1,2.0
2673,0.0,2e-05,2e-05,-1e-05,-0.0002,1e-05,-1e-05,0.0,1,2.0
2674,0.0,2e-05,2e-05,-1e-05,-0.0002,1e-05,-1e-05,0.0,1,2.0
2675,0.0,2e-05,2e-05,-1e-05,-0.0002,1e-05,-1e-05,0.0,1,2.0
2676,0.0,2e-05,2e-05,-1e-05,-0.0002,1e-05,-1e-05,0.0,1,2.0
2677,0.0,2e-05,2e-05,-1e-05,-0.0002,1e-05,-1e-05,0.0,1,2.0
2678,0.0,2e-05,2e-05,-1e-05,-0.0002,1e-05,-1e-05,0.0,1,2.0
2679,0.0,2e-05,2e-05,-1e-05,-0.0002,1e-05,-1e-05,0.0,1,2.0
2680,0.0,2e-05,2e-05,-1e-05,-0.0002,1e-05,-1e-05,0.0,1,2.0
2681,0.0,2e-05,2e-05,-1e-05,-0.0002,1e-05,-1e-05,0.0,1,2.0
2682,0.0,2e-05,2e-05,-1e-05,-0.0002,1e-05,-1e-05,0.0,1,2.0
2683,0.0,2e-05,2e-05,-1e-05,-0.0002,1e-05,-1e-05,0.0,1,2.0
2684,0.0,2e-05,2e-05,-1e-05,-0.0002,1e-05,-1e-05,0.0,1,2.0
2685,0.0,2e-05,2e-05,-1e-05,-0.0002,1e-05,-1e-05,0.0,1,2.0
2686,0.0,2e-05,2e-05,-1e-05,-0.0002,1e-05,-1e-05,0.0,1,2.0
2688,0.0,2e-05,2e-05,-1e-05,-0.0002,1e-05,-1e-05,0.0,1,2.0
2689,0.0,2e-05,2e-05,-1e-05,-0.0002,1e-05,-1e-05,0.0,1,2.0
2690,0.0,2e-05,2e-05,-1e-05,-0.0002,1e-05,-1e-05,0.0,1,2.0
2691,0.0,2e-05,2e-05,-1e-05,-0.0002,1e-05,-1e-05,0.0,1,2.0
2692,0.0,2e-05,2e-05,-1e-05,-0.0002,1e-05,-1e-05,0.0,1,2.0
2693,0.0,2e-05,2e-05,-1e-05,-0.0002,1e-05,-1e-05,0.0,1,2.0
2694,-2e-05,-4e-05,-7e-05,-0.00016,-0.00014,4e-05,-3e-05,0.0,1,2.0
2695,-2e-05,4e-05,9e-05,0.00027,0.00018,1e-05,2e-05,0.0,1,2.0
2696,0.0,5e-05,8e-05,2e-05,0.00018,-2e-05,-1e-05,1e-05,1,2.0
2697,0.0,5e-05,8e-05,2e-05,0.00018,-2e-05,-1e-05,1e-05,1,2.0
2698,0.0,5e-05,8e-05,2e-05,0.00018,-2e-05,-1e-05,1e-05,1,2.0
2699,0.0,5e-05,8e-05,2e-05,0.00018,-2e-05,-1e-05,1e-05,1,2.0
2700,0.0,5e-05,8e-05,2e-05,0.00018,-2e-05,-1e-05,1e-05,1,2.0
2701,0.0,5e-05,8e-05,2e-05,0.00018,-2e-05,-1e-05,1e-05,1,2.0
2702,0.0,5e-05,8e-05,2e-05,0.00018,-2e-05,-1e-05,1e-05,1,2.0
2703,0.0,5e-05,8e-05,2e-05,0.00018,-2e-05,-1e-05,1e-05,1,2.0
2704,0.0,5e-05,8e-05,2e-05,0.00018,-2e-05,-1e-05,1e-05,1,2.0
2705,0.0,5e-05,8e-05,2e-05,0.00018,-2e-05,-1e-05,1e-05,1,2.0
2706,0.0,5e-05,8e-05,2e-05,0.00018,-2e-05,-1e-05,1e-05,1,2.0
2707,-2e-05,-9e-05,-0.00012,-9e-05,-0.00017,4e-05,0.0,0.0,1,2.0
2708,-2e-05,-5e-05,-8e-05,-0.00013,-7e-05,-0.00024,0.0,-2e-05,1,2.0
2709,-2e-05,-5e-05,-8e-05,-0.00013,-7e-05,-0.00024,0.0,-2e-05,1,2.0
2710,-2e-05,-5e-05,-8e-05,-0.00013,-7e-05,-0.00024,0.0,-2e-05,1,2.0
2711,-2e-05,-5e-05,-8e-05,-0.00013,-7e-05,-0.00024,0.0,-2e-05,1,2.0
2712,-2e-05,-5e-05,-8e-05,-0.00013,-7e-05,-0.00024,0.0,-2e-05,1,2.0
2713,-2e-05,-5e-05,-8e-05,-0.00013,-7e-05,-0.00024,0.0,-2e-05,1,2.0
2714,-2e-05,-5e-05,-8e-05,-0.00013,-7e-05,-0.00024,0.0,-2e-05,1,2.0
2715,-2e-05,-5e-05,-8e-05,-0.00013,-7e-05,-0.00024,0.0,-2e-05,1,2.0
2716,-2e-05,-1e-05,4e-05,-2e-05,-0.00012,-1e-05,0.0,0.0,1,2.0
2717,-5e-05,0.0,-2e-05,-0.00021,-8e-05,0.00015,-2e-05,-3e-05,1,2.0
2718,-5e-05,0.0,-2e-05,-0.00021,-8e-05,0.00015,-2e-05,-3e-05,1,2.0
2719,-5e-05,0.0,-2e-05,-0.00021,-8e-05,0.00015,-2e-05,-3e-05,1,2.0
2720,-5e-05,0.0,-2e-05,-0.00021,-8e-05,0.00015,-2e-05,-3e-05,1,2.0
2721,-5e-05,0.0,-2e-05,-0.00021,-8e-05,0.00015,-2e-05,-3e-05,1,2.0
2722,-5e-05,0.0,-2e-05,-0.00021,-8e-05,0.00015,-2e-05,-3e-05,1,2.0
2723,-5e-05,0.0,-2e-05,-0.00021,-8e-05,0.00015,-2e-05,-3e-05,1,2.0
2724,-5e-05,0.0,-2e-05,-0.00021,-8e-05,0.00015,-2e-05,-3e-05,1,2.0
2725,-5e-05,0.0,-2e-05,-0.00021,-8e-05,0.00015,-2e-05,-3e-05,1,2.0
2726,-5e-05,0.0,-2e-05,-0.00021,-8e-05,0.00015,-2e-05,-3e-05,1,2.0
2727,-5e-05,0.0,-2e-05,-0.00021,-8e-05,0.00015,-2e-05,-3e-05,1,2.0
2728,-5e-05,0.0,-2e-05,-0.00021,-8e-05,0.00015,-2e-05,-3e-05,1,2.0
2729,-5e-05,0.0,-2e-05,-0.00021,-8e-05,0.00015,-2e-05,-3e-05,1,2.0
2730,-5e-05,0.0,-2e-05,-0.00021,-8e-05,0.00015,-2e-05,-3e-05,1,2.0
2731,0.0,2e-05,-3e-05,5e-05,0.00011,0.0,-1e-05,-2e-05,1,2.0
2732,0.0,2e-05,-3e-05,5e-05,0.00011,0.0,-1e-05,-2e-05,1,2.0
2733,-6e-05,-5e-05,0.0,0.0,-0.00026,0.0,-2e-05,-6e-05,1,2.0
2734,-6e-05,-5e-05,0.0,0.0,-0.00026,0.0,-2e-05,-6e-05,1,2.0
2735,-6e-05,-5e-05,0.0,0.0,-0.00026,0.0,-2e-05,-6e-05,1,2.0
2736,-6e-05,-5e-05,0.0,0.0,-0.00026,0.0,-2e-05,-6e-05,1,2.0
2738,-6e-05,-5e-05,0.0,0.0,-0.00026,0.0,-2e-05,-6e-05,1,2.0
2740,-6e-05,-5e-05,0.0,0.0,-0.00026,0.0,-2e-05,-6e-05,1,2.0
2741,-6e-05,-5e-05,0.0,0.0,-0.00026,0.0,-2e-05,-6e-05,1,2.0
2742,-6e-05,-5e-05,0.0,0.0,-0.00026,0.0,-2e-05,-6e-05,1,2.0
2743,-6e-05,-5e-05,0.0,0.0,-0.00026,0.0,-2e-05,-6e-05,1,2.0
2744,-6e-05,-5e-05,0.0,0.0,-0.00026,0.0,-2e-05,-6e-05,1,2.0
2745,-6e-05,-5e-05,0.0,0.0,-0.00026,0.0,-2e-05,-6e-05,1,2.0
2746,-6e-05,-5e-05,0.0,0.0,-0.00026,0.0,-2e-05,-6e-05,1,2.0
2747,-6e-05,-5e-05,0.0,0.0,-0.00026,0.0,-2e-05,-6e-05,1,2.0
2748,-6e-05,-5e-05,0.0,0.0,-0.00026,0.0,-2e-05,-6e-05,1,2.0
2749,-6e-05,-5e-05,0.0,0.0,-0.00026,0.0,-2e-05,-6e-05,1,2.0
2750,-6e-05,-5e-05,0.0,0.0,-0.00026,0.0,-2e-05,-6e-05,1,2.0
2751,-6e-05,-5e-05,0.0,0.0,-0.00026,0.0,-2e-05,-6e-05,1,2.0
2752,-6e-05,-5e-05,0.0,0.0,-0.00026,0.0,-2e-05,-6e-05,1,2.0
2753,-6e-05,-5e-05,0.0,0.0,-0.00026,0.0,-2e-05,-6e-05,1,2.0
2754,0.0,-2e-05,5e-05,0.00016,0.00024,7e-05,0.0,3e-05,1,2.0
2755,-1e-05,-4e-05,-3e-05,2e-05,0.00023,-6e-05,2e-05,2e-05,1,2.0
2756,-1e-05,-4e-05,-3e-05,2e-05,0.00023,-6e-05,2e-05,2e-05,1,2.0
2757,-1e-05,-4e-05,-3e-05,2e-05,0.00023,-6e-05,2e-05,2e-05,1,2.0
2758,-1e-05,-4e-05,-3e-05,2e-05,0.00023,-6e-05,2e-05,2e-05,1,2.0
2759,-1e-05,-4e-05,-3e-05,2e-05,0.00023,-6e-05,2e-05,2e-05,1,2.0
2760,-1e-05,-4e-05,-3e-05,2e-05,0.00023,-6e-05,2e-05,2e-05,1,2.0
2761,-1e-05,-4e-05,-3e-05,2e-05,0.00023,-6e-05,2e-05,2e-05,1,2.0
2762,-1e-05,-4e-05,-3e-05,2e-05,0.00023,-6e-05,2e-05,2e-05,1,2.0
2763,-1e-05,-4e-05,-3e-05,2e-05,0.00023,-6e-05,2e-05,2e-05,1,2.0
2764,-1e-05,-4e-05,-3e-05,2e-05,0.00023,-6e-05,2e-05,2e-05,1,2.0
2765,-1e-05,-4e-05,-3e-05,2e-05,0.00023,-6e-05,2e-05,2e-05,1,2.0
2766,-1e-05,-4e-05,-3e-05,2e-05,0.00023,-6e-05,2e-05,2e-05,1,2.0
2767,0.0,1e-05,2e-05,5e-05,-2e-05,-4e-05,0.0,-3e-05,1,2.0
2768,0.0,1e-05,2e-05,5e-05,-2e-05,-4e-05,0.0,-3e-05,1,2.0
2769,0.0,1e-05,2e-05,5e-05,-2e-05,-4e-05,0.0,-3e-05,1,2.0
2770,0.0,1e-05,2e-05,5e-05,-2e-05,-4e-05,0.0,-3e-05,1,2.0
2771,0.0,1e-05,2e-05,5e-05,-2e-05,-4e-05,0.0,-3e-05,1,2.0
2772,0.0,1e-05,2e-05,5e-05,-2e-05,-4e-05,0.0,-3e-05,1,2.0
2773,0.0,1e-05,2e-05,5e-05,-2e-05,-4e-05,0.0,-3e-05,1,2.0
2774,0.0,1e-05,2e-05,5e-05,-2e-05,-4e-05,0.0,-3e-05,1,2.0
2775,0.0,1e-05,2e-05,5e-05,-2e-05,-4e-05,0.0,-3e-05,1,2.0
2776,2e-05,2e-05,2e-05,-0.00011,-0.00017,9e-05,-3e-05,3e-05,1,2.0
2777,-4e-05,-2e-05,0.0,0.00016,0.00011,-5e-05,2e-05,1e-05,1,2.0
2778,-4e-05,-2e-05,0.0,0.00016,0.00011,-5e-05,2e-05,1e-05,1,2.0
2779,-4e-05,-2e-05,0.0,0.00016,0.00011,-5e-05,2e-05,1e-05,1,2.0
2780,-4e-05,-2e-05,0.0,0.00016,0.00011,-5e-05,2e-05,1e-05,1,2.0
2781,-4e-05,-2e-05,0.0,0.00016,0.00011,-5e-05,2e-05,1e-05,1,2.0
2782,-4e-05,-2e-05,0.0,0.00016,0.00011,-5e-05,2e-05,1e-05,1,2.0
2783,-4e-05,-2e-05,0.0,0.00016,0.00011,-5e-05,2e-05,1e-05,1,2.0
2784,-4e-05,-2e-05,0.0,0.00016,0.00011,-5e-05,2e-05,1e-05,1,2.0
2785,-4e-05,-2e-05,0.0,0.00016,0.00011,-5e-05,2e-05,1e-05,1,2.0
2786,-4e-05,-2e-05,0.0,0.00016,0.00011,-5e-05,2e-05,1e-05,1,2.0
2788,-4e-05,-2e-05,0.0,0.00016,0.00011,-5e-05,2e-05,1e-05,1,2.0
2789,-4e-05,-2e-05,0.0,0.00016,0.00011,-5e-05,2e-05,1e-05,1,2.0
2790,-4e-05,-2e-05,0.0,0.00016,0.00011,-5e-05,2e-05,1e-05,1,2.0
2791,-4e-05,-2e-05,0.0,0.00016,0.00011,-5e-05,2e-05,1e-05,1,2.0
2792,-4e-05,-2e-05,0.0,0.00016,0.00011,-5e-05,2e-05,1e-05,1,2.0
2793,-4e-05,-2e-05,0.0,0.00016,0.00011,-5e-05,2e-05,1e-05,1,2.0
2794,-4e-05,-2e-05,0.0,0.00016,0.00011,-5e-05,2e-05,1e-05,1,2.0
2795,-4e-05,-2e-05,0.0,0.00016,0.00011,-5e-05,2e-05,1e-05,1,2.0
2796,-4e-05,-2e-05,0.0,0.00016,0.00011,-5e-05,2e-05,1e-05,1,2.0
2797,-4e-05,-2e-05,0.0,0.00016,0.00011,-5e-05,2e-05,1e-05,1,2.0
2798,-4e-05,-2e-05,0.0,0.00016,0.00011,-5e-05,2e-05,1e-05,1,2.0
2799,0.0,0.0,-3e-05,-2e-05,1e-05,4e-05,-1e-05,1e-05,1,2.0
2800,-2e-05,-2e-05,-3e-05,-0.00011,-0.00015,-2e-05,-4e-05,-4e-05,1,2.0
2801,1e-05,1e-05,6e-05,2e-05,0.00019,6e-05,1e-05,2e-05,1,2.0
2802,1e-05,1e-05,6e-05,2e-05,0.00019,6e-05,1e-05,2e-05,1,2.0
2803,1e-05,1e-05,6e-05,2e-05,0.00019,6e-05,1e-05,2e-05,1,2.0
2804,1e-05,1e-05,6e-05,2e-05,0.00019,6e-05,1e-05,2e-05,1,2.0
2805,1e-05,1e-05,6e-05,2e-05,0.00019,6e-05,1e-05,2e-05,1,2.0
2806,1e-05,1e-05,6e-05,2e-05,0.00019,6e-05,1e-05,2e-05,1,2.0
2807,1e-05,1e-05,6e-05,2e-05,0.00019,6e-05,1e-05,2e-05,1,2.0
2808,1e-05,1e-05,6e-05,2e-05,0.00019,6e-05,1e-05,2e-05,1,2.0
2809,1e-05,1e-05,6e-05,2e-05,0.00019,6e-05,1e-05,2e-05,1,2.0
2810,1e-05,1e-05,6e-05,2e-05,0.00019,6e-05,1e-05,2e-05,1,2.0
2811,1e-05,1e-05,6e-05,2e-05,0.00019,6e-05,1e-05,2e-05,1,2.0
2812,1e-05,1e-05,6e-05,2e-05,0.00019,6e-05,1e-05,2e-05,1,2.0
2813,1e-05,1e-05,6e-05,2e-05,0.00019,6e-05,1e-05,2e-05,1,2.0
2814,-3e-05,0.0,0.0,0.00024,3e-05,4e-05,-1e-05,0.0,1,2.0
2815,3e-05,-1e-05,-9e-05,-0.00013,2e-05,-0.0001,-2e-05,-3e-05,1,2.0
2816,3e-05,-1e-05,-9e-05,-0.00013,2e-05,-0.0001,-2e-05,-3e-05,1,2.0
2817,3e-05,-1e-05,-9e-05,-0.00013,2e-05,-0.0001,-2e-05,-3e-05,1,2.0
2818,3e-05,-1e-05,-9e-05,-0.00013,2e-05,-0.0001,-2e-05,-3e-05,1,2.0
2819,3e-05,-1e-05,-9e-05,-0.00013,2e-05,-0.0001,-2e-05,-3e-05,1,2.0
2820,3e-05,-1e-05,-9e-05,-0.00013,2e-05,-0.0001,-2e-05,-3e-05,1,2.0
2821,3e-05,-1e-05,-9e-05,-0.00013,2e-05,-0.0001,-2e-05,-3e-05,1,2.0
2822,3e-05,-1e-05,-9e-05,-0.00013,2e-05,-0.0001,-2e-05,-3e-05,1,2.0
2823,3e-05,-1e-05,-9e-05,-0.00013,2e-05,-0.0001,-2e-05,-3e-05,1,2.0
2824,3e-05,-1e-05,-9e-05,-0.00013,2e-05,-0.0001,-2e-05,-3e-05,1,2.0
2825,3e-05,-1e-05,-9e-05,-0.00013,2e-05,-0.0001,-2e-05,-3e-05,1,2.0
2826,3e-05,-1e-05,-9e-05,-0.00013,2e-05,-0.0001,-2e-05,-3e-05,1,2.0
2827,2e-05,1e-05,2e-05,-0.00012,-0.00018,3e-05,-3e-05,-2e-05,1,2.0
2828,-2e-05,-5e-05,-0.00014,-3e-05,7e-05,-1e-05,-6e-05,-2e-05,1,2.0
2829,-2e-05,-5e-05,-0.00014,-3e-05,7e-05,-1e-05,-6e-05,-2e-05,1,2.0
2830,-2e-05,-5e-05,-0.00014,-3e-05,7e-05,-1e-05,-6e-05,-2e-05,1,2.0
2831,-2e-05,-5e-05,-0.00014,-3e-05,7e-05,-1e-05,-6e-05,-2e-05,1,2.0
2832,-2e-05,-5e-05,-0.00014,-3e-05,7e-05,-1e-05,-6e-05,-2e-05,1,2.0
2833,-2e-05,-5e-05,-0.00014,-3e-05,7e-05,-1e-05,-6e-05,-2e-05,1,2.0
2834,-2e-05,-5e-05,-0.00014,-3e-05,7e-05,-1e-05,-6e-05,-2e-05,1,2.0
2835,-2e-05,-5e-05,-0.00014,-3e-05,7e-05,-1e-05,-6e-05,-2e-05,1,2.0
2837,1e-05,1e-05,9e-05,8e-05,-7e-05,-6e-05,1e-05,0.0,1,2.0
2839,1e-05,1e-05,9e-05,8e-05,-7e-05,-6e-05,1e-05,0.0,1,2.0
2840,1e-05,1e-05,9e-05,8e-05,-7e-05,-6e-05,1e-05,0.0,1,2.0
2841,1e-05,1e-05,9e-05,8e-05,-7e-05,-6e-05,1e-05,0.0,1,2.0
2842,1e-05,1e-05,9e-05,8e-05,-7e-05,-6e-05,1e-05,0.0,1,2.0
2843,1e-05,1e-05,9e-05,8e-05,-7e-05,-6e-05,1e-05,0.0,1,2.0
2844,1e-05,1e-05,9e-05,8e-05,-7e-05,-6e-05,1e-05,0.0,1,2.0
2845,1e-05,1e-05,9e-05,8e-05,-7e-05,-6e-05,1e-05,0.0,1,2.0
2846,1e-05,1e-05,9e-05,8e-05,-7e-05,-6e-05,1e-05,0.0,1,2.0
2847,1e-05,1e-05,9e-05,8e-05,-7e-05,-6e-05,1e-05,0.0,1,2.0
2848,1e-05,1e-05,9e-05,8e-05,-7e-05,-6e-05,1e-05,0.0,1,2.0
2849,1e-05,1e-05,9e-05,8e-05,-7e-05,-6e-05,1e-05,0.0,1,2.0
2850,1e-05,1e-05,9e-05,8e-05,-7e-05,-6e-05,1e-05,0.0,1,2.0
2851,-7e-05,-3e-05,3e-05,-5e-05,0.0,3e-05,0.0,-1e-05,1,2.0
2852,-7e-05,-3e-05,3e-05,-5e-05,0.0,3e-05,0.0,-1e-05,1,2.0
2853,-1e-05,-5e-05,-0.0001,-8e-05,-9e-05,-6e-05,-2e-05,1e-05,1,2.0
2854,-1e-05,-5e-05,-0.0001,-8e-05,-9e-05,-6e-05,-2e-05,1e-05,1,2.0
2855,-1e-05,-5e-05,-0.0001,-8e-05,-9e-05,-6e-05,-2e-05,1e-05,1,2.0
2856,-1e-05,-5e-05,-0.0001,-8e-05,-9e-05,-6e-05,-2e-05,1e-05,1,2.0
2857,-1e-05,-5e-05,-0.0001,-8e-05,-9e-05,-6e-05,-2e-05,1e-05,1,2.0
2858,-1e-05,-5e-05,-0.0001,-8e-05,-9e-05,-6e-05,-2e-05,1e-05,1,2.0
2859,-1e-05,-5e-05,-0.0001,-8e-05,-9e-05,-6e-05,-2e-05,1e-05,1,2.0
2860,-1e-05,-5e-05,-0.0001,-8e-05,-9e-05,-6e-05,-2e-05,1e-05,1,2.0
2861,-1e-05,-5e-05,-0.0001,-8e-05,-9e-05,-6e-05,-2e-05,1e-05,1,2.0
2862,-1e-05,-5e-05,-0.0001,-8e-05,-9e-05,-6e-05,-2e-05,1e-05,1,2.0
2863,-1e-05,-5e-05,-0.0001,-8e-05,-9e-05,-6e-05,-2e-05,1e-05,1,2.0
2864,-1e-05,-5e-05,-0.0001,-8e-05,-9e-05,-6e-05,-2e-05,1e-05,1,2.0
2865,-1e-05,-5e-05,-0.0001,-8e-05,-9e-05,-6e-05,-2e-05,1e-05,1,2.0
2866,-1e-05,-5e-05,-0.0001,-8e-05,-9e-05,-6e-05,-2e-05,1e-05,1,2.0
2867,-1e-05,-5e-05,-0.0001,-8e-05,-9e-05,-6e-05,-2e-05,1e-05,1,2.0
2868,-1e-05,-5e-05,-0.0001,-8e-05,-9e-05,-6e-05,-2e-05,1e-05,1,2.0
2869,-1e-05,-5e-05,-0.0001,-8e-05,-9e-05,-6e-05,-2e-05,1e-05,1,2.0
2870,-1e-05,-5e-05,-0.0001,-8e-05,-9e-05,-6e-05,-2e-05,1e-05,1,2.0
2871,-1e-05,-5e-05,-0.0001,-8e-05,-9e-05,-6e-05,-2e-05,1e-05,1,2.0
2872,-1e-05,-5e-05,-0.0001,-8e-05,-9e-05,-6e-05,-2e-05,1e-05,1,2.0
2873,-1e-05,-5e-05,-0.0001,-8e-05,-9e-05,-6e-05,-2e-05,1e-05,1,2.0
2874,2e-05,3e-05,5e-05,2e-05,9e-05,0.0,-2e-05,-5e-05,1,2.0
2875,-3e-05,-4e-05,-7e-05,-0.00016,-9e-05,7e-05,-1e-05,-2e-05,1,2.0
2876,-3e-05,-4e-05,-7e-05,-0.00016,-9e-05,7e-05,-1e-05,-2e-05,1,2.0
2877,-3e-05,-4e-05,-7e-05,-0.00016,-9e-05,7e-05,-1e-05,-2e-05,1,2.0
2878,-3e-05,-4e-05,-7e-05,-0.00016,-9e-05,7e-05,-1e-05,-2e-05,1,2.0
2879,-3e-05,-4e-05,-7e-05,-0.00016,-9e-05,7e-05,-1e-05,-2e-05,1,2.0
2880,-3e-05,-4e-05,-7e-05,-0.00016,-9e-05,7e-05,-1e-05,-2e-05,1,2.0
2881,-3e-05,-4e-05,-7e-05,-0.00016,-9e-05,7e-05,-1e-05,-2e-05,1,2.0
2882,-3e-05,-4e-05,-7e-05,-0.00016,-9e-05,7e-05,-1e-05,-2e-05,1,2.0
2883,-3e-05,-4e-05,-7e-05,-0.00016,-9e-05,7e-05,-1e-05,-2e-05,1,2.0
2884,-3e-05,-4e-05,-7e-05,-0.00016,-9e-05,7e-05,-1e-05,-2e-05,1,2.0
2885,-3e-05,-4e-05,-7e-05,-0.00016,-9e-05,7e-05,-1e-05,-2e-05,1,2.0
2886,-3e-05,-4e-05,-7e-05,-0.00016,-9e-05,7e-05,-1e-05,-2e-05,1,2.0
2888,-3e-05,-4e-05,-7e-05,-0.00016,-9e-05,7e-05,-1e-05,-2e-05,1,2.0
2889,-3e-05,-4e-05,-7e-05,-0.00016,-9e-05,7e-05,-1e-05,-2e-05,1,2.0
2890,-3e-05,-4e-05,-7e-05,-0.00016,-9e-05,7e-05,-1e-05,-2e-05,1,2.0
2891,-3e-05,-4e-05,-7e-05,-0.00016,-9e-05,7e-05,-1e-05,-2e-05,1,2.0
2892,-3e-05,-4e-05,-7e-05,-0.00016,-9e-05,7e-05,-1e-05,-2e-05,1,2.0
2893,-3e-05,-4e-05,-7e-05,-0.00016,-9e-05,7e-05,-1e-05,-2e-05,1,2.0
2894,-3e-05,-4e-05,-7e-05,-0.00016,-9e-05,7e-05,-1e-05,-2e-05,1,2.0
2895,-3e-05,-4e-05,-7e-05,-0.00016,-9e-05,7e-05,-1e-05,-2e-05,1,2.0
2896,-1e-05,1e-05,2e-05,4e-05,-9e-05,-1e-05,2e-05,-2e-05,1,2.0
2897,-1e-05,1e-05,2e-05,4e-05,-9e-05,-1e-05,2e-05,-2e-05,1,2.0
2898,-3e-05,-2e-05,-0.00018,0.00011,9e-05,-7e-05,-2e-05,-2e-05,1,2.0
2899,-3e-05,-2e-05,-0.00018,0.00011,9e-05,-7e-05,-2e-05,-2e-05,1,2.0
2900,-3e-05,-2e-05,-0.00018,0.00011,9e-05,-7e-05,-2e-05,-2e-05,1,2.0
2901,-3e-05,-2e-05,-0.00018,0.00011,9e-05,-7e-05,-2e-05,-2e-05,1,2.0
2902,-3e-05,-2e-05,-0.00018,0.00011,9e-05,-7e-05,-2e-05,-2e-05,1,2.0
2903,-3e-05,-2e-05,-0.00018,0.00011,9e-05,-7e-05,-2e-05,-2e-05,1,2.0
2904,-3e-05,-2e-05,-0.00018,0.00011,9e-05,-7e-05,-2e-05,-2e-05,1,2.0
2905,-3e-05,-2e-05,-0.00018,0.00011,9e-05,-7e-05,-2e-05,-2e-05,1,2.0
2906,-3e-05,-2e-05,-0.00018,0.00011,9e-05,-7e-05,-2e-05,-2e-05,1,2.0
2907,-3e-05,-2e-05,-0.00018,0.00011,9e-05,-7e-05,-2e-05,-2e-05,1,2.0
2908,-3e-05,-2e-05,-0.00018,0.00011,9e-05,-7e-05,-2e-05,-2e-05,1,2.0
2909,-3e-05,-2e-05,-0.00018,0.00011,9e-05,-7e-05,-2e-05,-2e-05,1,2.0
2910,-3e-05,-2e-05,-0.00018,0.00011,9e-05,-7e-05,-2e-05,-2e-05,1,2.0
2911,0.0,-3e-05,-1e-05,-0.00013,2e-05,2e-05,-1e-05,1e-05,1,2.0
2912,0.0,-3e-05,-1e-05,-0.00013,2e-05,2e-05,-1e-05,1e-05,1,2.0
2913,3e-05,4e-05,0.00013,0.00017,0.00041,0.00015,4e-05,3e-05,1,2.0
2914,3e-05,4e-05,0.00013,0.00017,0.00041,0.00015,4e-05,3e-05,1,2.0
2915,3e-05,4e-05,0.00013,0.00017,0.00041,0.00015,4e-05,3e-05,1,2.0
2916,3e-05,4e-05,0.00013,0.00017,0.00041,0.00015,4e-05,3e-05,1,2.0
2917,3e-05,4e-05,0.00013,0.00017,0.00041,0.00015,4e-05,3e-05,1,2.0
2918,3e-05,4e-05,0.00013,0.00017,0.00041,0.00015,4e-05,3e-05,1,2.0
2919,3e-05,4e-05,0.00013,0.00017,0.00041,0.00015,4e-05,3e-05,1,2.0
2920,3e-05,4e-05,0.00013,0.00017,0.00041,0.00015,4e-05,3e-05,1,2.0
2921,3e-05,4e-05,0.00013,0.00017,0.00041,0.00015,4e-05,3e-05,1,2.0
2922,3e-05,4e-05,0.00013,0.00017,0.00041,0.00015,4e-05,3e-05,1,2.0
2923,3e-05,4e-05,0.00013,0.00017,0.00041,0.00015,4e-05,3e-05,1,2.0
2924,3e-05,4e-05,0.00013,0.00017,0.00041,0.00015,4e-05,3e-05,1,2.0
2925,3e-05,4e-05,0.00013,0.00017,0.00041,0.00015,4e-05,3e-05,1,2.0
2926,3e-05,4e-05,0.00013,0.00017,0.00041,0.00015,4e-05,3e-05,1,2.0
2927,3e-05,4e-05,0.00013,0.00017,0.00041,0.00015,4e-05,3e-05,1,2.0
2928,3e-05,4e-05,0.00013,0.00017,0.00041,0.00015,4e-05,3e-05,1,2.0
2929,3e-05,4e-05,0.00013,0.00017,0.00041,0.00015,4e-05,3e-05,1,2.0
2930,3e-05,4e-05,0.00013,0.00017,0.00041,0.00015,4e-05,3e-05,1,2.0
2931,3e-05,4e-05,0.00013,0.00017,0.00041,0.00015,4e-05,3e-05,1,2.0
2932,3e-05,4e-05,0.00013,0.00017,0.00041,0.00015,4e-05,3e-05,1,2.0
2933,3e-05,4e-05,0.00013,0.00017,0.00041,0.00015,4e-05,3e-05,1,2.0
2934,-1e-05,-3e-05,3e-05,0.00015,1e-05,-6e-05,1e-05,0.0,1,2.0
2935,-1e-05,-4e-05,-7e-05,-0.00014,2e-05,-2e-05,1e-05,-3e-05,1,2.0
2936,-2e-05,-2e-05,-1e-05,-0.0001,-0.00012,-0.0001,-2e-05,-2e-05,1,2.0
2938,-2e-05,-2e-05,-1e-05,-0.0001,-0.00012,-0.0001,-2e-05,-2e-05,1,2.0
2939,-2e-05,-2e-05,-1e-05,-0.0001,-0.00012,-0.0001,-2e-05,-2e-05,1,2.0
2940,-2e-05,-2e-05,-1e-05,-0.0001,-0.00012,-0.0001,-2e-05,-2e-05,1,2.0
2941,-2e-05,-2e-05,-1e-05,-0.0001,-0.00012,-0.0001,-2e-05,-2e-05,1,2.0
2942,-2e-05,-2e-05,-1e-05,-0.0001,-0.00012,-0.0001,-2e-05,-2e-05,1,2.0
2943,-2e-05,-2e-05,-1e-05,-0.0001,-0.00012,-0.0001,-2e-05,-2e-05,1,2.0
2944,-2e-05,-2e-05,-1e-05,-0.0001,-0.00012,-0.0001,-2e-05,-2e-05,1,2.0
2945,-2e-05,-2e-05,-1e-05,-0.0001,-0.00012,-0.0001,-2e-05,-2e-05,1,2.0
2946,-2e-05,-2e-05,-1e-05,-0.0001,-0.00012,-0.0001,-2e-05,-2e-05,1,2.0
2947,-2e-05,-2e-05,-1e-05,-0.0001,-0.00012,-0.0001,-2e-05,-2e-05,1,2.0
2948,-2e-05,-2e-05,-1e-05,-0.0001,-0.00012,-0.0001,-2e-05,-2e-05,1,2.0
2949,-2e-05,-2e-05,-1e-05,-0.0001,-0.00012,-0.0001,-2e-05,-2e-05,1,2.0
2950,-2e-05,-2e-05,-1e-05,-0.0001,-0.00012,-0.0001,-2e-05,-2e-05,1,2.0
2951,-2e-05,-2e-05,-1e-05,-0.0001,-0.00012,-0.0001,-2e-05,-2e-05,1,2.0
2952,-2e-05,-2e-05,-1e-05,-0.0001,-0.00012,-0.0001,-2e-05,-2e-05,1,2.0
2953,-2e-05,-2e-05,-1e-05,-0.0001,-0.00012,-0.0001,-2e-05,-2e-05,1,2.0
2954,-2e-05,-2e-05,-1e-05,-0.0001,-0.00012,-0.0001,-2e-05,-2e-05,1,2.0
2955,-2e-05,-2e-05,-1e-05,-0.0001,-0.00012,-0.0001,-2e-05,-2e-05,1,2.0
2956,1e-05,-1e-05,2e-05,0.0001,3e-05,-9e-05,-2e-05,-1e-05,1,2.0
2957,-6e-05,-5e-05,-3e-05,0.0001,0.00052,0.00011,-2e-05,0.0,1,2.0
2958,0.0,-1e-05,-9e-05,-8e-05,-0.00025,-3e-05,-3e-05,-2e-05,1,2.0
2959,0.0,-1e-05,-9e-05,-8e-05,-0.00025,-3e-05,-3e-05,-2e-05,1,2.0
2960,0.0,-1e-05,-9e-05,-8e-05,-0.00025,-3e-05,-3e-05,-2e-05,1,2.0
2961,0.0,-1e-05,-9e-05,-8e-05,-0.00025,-3e-05,-3e-05,-2e-05,1,2.0
2962,0.0,-1e-05,-9e-05,-8e-05,-0.00025,-3e-05,-3e-05,-2e-05,1,2.0
2963,0.0,-1e-05,-9e-05,-8e-05,-0.00025,-3e-05,-3e-05,-2e-05,1,2.0
2964,0.0,-1e-05,-9e-05,-8e-05,-0.00025,-3e-05,-3e-05,-2e-05,1,2.0
2965,0.0,-1e-05,-9e-05,-8e-05,-0.00025,-3e-05,-3e-05,-2e-05,1,2.0
2966,0.0,-1e-05,-9e-05,-8e-05,-0.00025,-3e-05,-3e-05,-2e-05,1,2.0
2967,0.0,-1e-05,-9e-05,-8e-05,-0.00025,-3e-05,-3e-05,-2e-05,1,2.0
2968,0.0,-1e-05,-9e-05,-8e-05,-0.00025,-3e-05,-3e-05,-2e-05,1,2.0
2969,0.0,-1e-05,-9e-05,-8e-05,-0.00025,-3e-05,-3e-05,-2e-05,1,2.0
2970,0.0,-1e-05,-9e-05,-8e-05,-0.00025,-3e-05,-3e-05,-2e-05,1,2.0
2971,-1e-05,0.0,-3e-05,-4e-05,-0.00012,4e-05,-2e-05,3e-05,1,2.0
2972,-1e-05,0.0,-3e-05,-4e-05,-0.00012,4e-05,-2e-05,3e-05,1,2.0
2973,-2e-05,-1e-05,4e-05,-7e-05,-0.00023,-4e-05,2e-05,1e-05,1,2.0
2974,-2e-05,-1e-05,4e-05,-7e-05,-0.00023,-4e-05,2e-05,1e-05,1,2.0
2975,-2e-05,-1e-05,4e-05,-7e-05,-0.00023,-4e-05,2e-05,1e-05,1,2.0
2976,-2e-05,-1e-05,4e-05,-7e-05,-0.00023,-4e-05,2e-05,1e-05,1,2.0
2977,-2e-05,-1e-05,4e-05,-7e-05,-0.00023,-4e-05,2e-05,1e-05,1,2.0
2978,-2e-05,-1e-05,4e-05,-7e-05,-0.00023,-4e-05,2e-05,1e-05,1,2.0
2979,-2e-05,-1e-05,4e-05,-7e-05,-0.00023,-4e-05,2e-05,1e-05,1,2.0
2980,-2e-05,-1e-05,4e-05,-7e-05,-0.00023,-4e-05,2e-05,1e-05,1,2.0
2981,-2e-05,-1e-05,4e-05,-7e-05,-0.00023,-4e-05,2e-05,1e-05,1,2.0
2982,-2e-05,-1e-05,4e-05,-7e-05,-0.00023,-4e-05,2e-05,1e-05,1,2.0
2983,-2e-05,-1e-05,4e-05,-7e-05,-0.00023,-4e-05,2e-05,1e-05,1,2.0
2984,-2e-05,-1e-05,4e-05,-7e-05,-0.00023,-4e-05,2e-05,1e-05,1,2.0
2985,-2e-05,-1e-05,4e-05,-7e-05,-0.00023,-4e-05,2e-05,1e-05,1,2.0
2986,-2e-05,-1e-05,4e-05,-7e-05,-0.00023,-4e-05,2e-05,1e-05,1,2.0
2988,-2e-05,-1e-05,4e-05,-7e-05,-0.00023,-4e-05,2e-05,1e-05,1,2.0
2989,-2e-05,-1e-05,4e-05,-7e-05,-0.00023,-4e-05,2e-05,1e-05,1,2.0
2990,-2e-05,-1e-05,4e-05,-7e-05,-0.00023,-4e-05,2e-05,1e-05,1,2.0
2991,-2e-05,-1e-05,4e-05,-7e-05,-0.00023,-4e-05,2e-05,1e-05,1,2.0
2992,-2e-05,-1e-05,4e-05,-7e-05,-0.00023,-4e-05,2e-05,1e-05,1,2.0
2993,-2e-05,-1e-05,4e-05,-7e-05,-0.00023,-4e-05,2e-05,1e-05,1,2.0
2994,1e-05,-2e-05,-6e-05,-8e-05,-1e-05,5e-05,-2e-05,-2e-05,1,2.0
2995,1e-05,-3e-05,-3e-05,0.0,-1e-05,-1e-05,-3e-05,-3e-05,1,2.0
2996,1e-05,-3e-05,-3e-05,0.0,-1e-05,-1e-05,-3e-05,-3e-05,1,2.0
2997,1e-05,-3e-05,-3e-05,0.0,-1e-05,-1e-05,-3e-05,-3e-05,1,2.0
2998,1e-05,-3e-05,-3e-05,0.0,-1e-05,-1e-05,-3e-05,-3e-05,1,2.0
2999,1e-05,-3e-05,-3e-05,0.0,-1e-05,-1e-05,-3e-05,-3e-05,1,2.0
3000,1e-05,-3e-05,-3e-05,0.0,-1e-05,-1e-05,-3e-05,-3e-05,1,2.0
3001,1e-05,-3e-05,-3e-05,0.0,-1e-05,-1e-05,-3e-05,-3e-05,1,2.0
3002,1e-05,-3e-05,-3e-05,0.0,-1e-05,-1e-05,-3e-05,-3e-05,1,2.0
3003,1e-05,-3e-05,-3e-05,0.0,-1e-05,-1e-05,-3e-05,-3e-05,1,2.0
3004,1e-05,-3e-05,-3e-05,0.0,-1e-05,-1e-05,-3e-05,-3e-05,1,2.0
3005,1e-05,-3e-05,-3e-05,0.0,-1e-05,-1e-05,-3e-05,-3e-05,1,2.0
3006,1e-05,-3e-05,-3e-05,0.0,-1e-05,-1e-05,-3e-05,-3e-05,1,2.0
3007,1e-05,-3e-05,-3e-05,0.0,-1e-05,-1e-05,-3e-05,-3e-05,1,2.0
3008,1e-05,-3e-05,-3e-05,0.0,-1e-05,-1e-05,-3e-05,-3e-05,1,2.0
3009,1e-05,-3e-05,-3e-05,0.0,-1e-05,-1e-05,-3e-05,-3e-05,1,2.0
3010,1e-05,-3e-05,-3e-05,0.0,-1e-05,-1e-05,-3e-05,-3e-05,1,2.0
3011,1e-05,-3e-05,-3e-05,0.0,-1e-05,-1e-05,-3e-05,-3e-05,1,2.0
3012,1e-05,-3e-05,-3e-05,0.0,-1e-05,-1e-05,-3e-05,-3e-05,1,2.0
3013,1e-05,-3e-05,-3e-05,0.0,-1e-05,-1e-05,-3e-05,-3e-05,1,2.0
3014,1e-05,-3e-05,-3e-05,0.0,-1e-05,-1e-05,-3e-05,-3e-05,1,2.0
3015,1e-05,-3e-05,-3e-05,0.0,-1e-05,-1e-05,-3e-05,-3e-05,1,2.0
3016,4e-05,-2e-05,1e-05,-7e-05,-4e-05,-1e-05,-3e-05,0.0,1,2.0
3017,4e-05,-2e-05,1e-05,-7e-05,-4e-05,-1e-05,-3e-05,0.0,1,2.0
3018,-2e-05,-3e-05,4e-05,-0.0001,-0.00022,-3e-05,-3e-05,-1e-05,1,2.0
3019,-2e-05,-3e-05,4e-05,-0.0001,-0.00022,-3e-05,-3e-05,-1e-05,1,2.0
3020,-2e-05,-3e-05,4e-05,-0.0001,-0.00022,-3e-05,-3e-05,-1e-05,1,2.0
3021,-2e-05,-3e-05,4e-05,-0.0001,-0.00022,-3e-05,-3e-05,-1e-05,1,2.0
3022,-2e-05,-3e-05,4e-05,-0.0001,-0.00022,-3e-05,-3e-05,-1e-05,1,2.0
3023,-2e-05,-3e-05,4e-05,-0.0001,-0.00022,-3e-05,-3e-05,-1e-05,1,2.0
3024,-2e-05,-3e-05,4e-05,-0.0001,-0.00022,-3e-05,-3e-05,-1e-05,1,2.0
3025,-2e-05,-3e-05,4e-05,-0.0001,-0.00022,-3e-05,-3e-05,-1e-05,1,2.0
3026,-2e-05,-3e-05,4e-05,-0.0001,-0.00022,-3e-05,-3e-05,-1e-05,1,2.0
3027,-2e-05,-3e-05,4e-05,-0.0001,-0.00022,-3e-05,-3e-05,-1e-05,1,2.0
3028,-2e-05,-3e-05,4e-05,-0.0001,-0.00022,-3e-05,-3e-05,-1e-05,1,2.0
3029,-2e-05,-3e-05,4e-05,-0.0001,-0.00022,-3e-05,-3e-05,-1e-05,1,2.0
3030,-2e-05,-3e-05,4e-05,-0.0001,-0.00022,-3e-05,-3e-05,-1e-05,1,2.0
3031,0.0,-3e-05,-9e-05,2e-05,0.00021,-4e-05,2e-05,0.0,1,2.0
3032,0.0,-3e-05,-9e-05,2e-05,0.00021,-4e-05,2e-05,0.0,1,2.0
3033,0.0,-3e-05,-9e-05,2e-05,0.00021,-4e-05,2e-05,0.0,1,2.0
3034,0.0,-3e-05,-9e-05,2e-05,0.00021,-4e-05,2e-05,0.0,1,2.0
3035,0.0,-3e-05,-9e-05,2e-05,0.00021,-4e-05,2e-05,0.0,1,2.0
3036,0.0,-3e-05,-9e-05,2e-05,0.00021,-4e-05,2e-05,0.0,1,2.0
3038,0.0,-2e-05,1e-05,-2e-05,-4e-05,-2e-05,1e-05,-1e-05,1,2.0
3039,0.0,-2e-05,1e-05,-2e-05,-4e-05,-2e-05,1e-05,-1e-05,1,2.0
3040,0.0,-2e-05,1e-05,-2e-05,-4e-05,-2e-05,1e-05,-1e-05,1,2.0
3041,0.0,-2e-05,1e-05,-2e-05,-4e-05,-2e-05,1e-05,-1e-05,1,2.0
3042,0.0,-2e-05,1e-05,-2e-05,-4e-05,-2e-05,1e-05,-1e-05,1,2.0
3043,0.0,-2e-05,1e-05,-2e-05,-4e-05,-2e-05,1e-05,-1e-05,1,2.0
3044,0.0,-2e-05,1e-05,-2e-05,-4e-05,-2e-05,1e-05,-1e-05,1,2.0
3045,0.0,-2e-05,1e-05,-2e-05,-4e-05,-2e-05,1e-05,-1e-05,1,2.0
3046,0.0,-2e-05,1e-05,-2e-05,-4e-05,-2e-05,1e-05,-1e-05,1,2.0
3047,0.0,-2e-05,1e-05,-2e-05,-4e-05,-2e-05,1e-05,-1e-05,1,2.0
3048,0.0,-2e-05,1e-05,-2e-05,-4e-05,-2e-05,1e-05,-1e-05,1,2.0
3049,0.0,-2e-05,1e-05,-2e-05,-4e-05,-2e-05,1e-05,-1e-05,1,2.0
3050,0.0,-2e-05,1e-05,-2e-05,-4e-05,-2e-05,1e-05,-1e-05,1,2.0
3051,0.0,-2e-05,1e-05,-2e-05,-4e-05,-2e-05,1e-05,-1e-05,1,2.0
3052,0.0,-2e-05,1e-05,-2e-05,-4e-05,-2e-05,1e-05,-1e-05,1,2.0
3053,0.0,-2e-05,1e-05,-2e-05,-4e-05,-2e-05,1e-05,-1e-05,1,2.0
3054,-2e-05,-1e-05,2e-05,1e-05,0.00028,-4e-05,0.0,0.0,1,2.0
3055,-3e-05,2e-05,-3e-05,-1e-05,-0.00025,-0.00047,3e-05,-1e-05,1,2.0
3056,-3e-05,-5e-05,-0.00012,-8e-05,-7e-05,-2e-05,-2e-05,-3e-05,1,2.0
3057,-3e-05,-5e-05,-0.00012,-8e-05,-7e-05,-2e-05,-2e-05,-3e-05,1,2.0
3058,-3e-05,-5e-05,-0.00012,-8e-05,-7e-05,-2e-05,-2e-05,-3e-05,1,2.0
3059,-3e-05,-5e-05,-0.00012,-8e-05,-7e-05,-2e-05,-2e-05,-3e-05,1,2.0
3060,-3e-05,-5e-05,-0.00012,-8e-05,-7e-05,-2e-05,-2e-05,-3e-05,1,2.0
3061,-3e-05,-5e-05,-0.00012,-8e-05,-7e-05,-2e-05,-2e-05,-3e-05,1,2.0
3062,-3e-05,-5e-05,-0.00012,-8e-05,-7e-05,-2e-05,-2e-05,-3e-05,1,2.0
3063,-3e-05,-5e-05,-0.00012,-8e-05,-7e-05,-2e-05,-2e-05,-3e-05,1,2.0
3064,-3e-05,-5e-05,-0.00012,-8e-05,-7e-05,-2e-05,-2e-05,-3e-05,1,2.0
3065,-3e-05,-5e-05,-0.00012,-8e-05,-7e-05,-2e-05,-2e-05,-3e-05,1,2.0
3066,-3e-05,-5e-05,-0.00012,-8e-05,-7e-05,-2e-05,-2e-05,-3e-05,1,2.0
3067,-3e-05,-5e-05,-0.00012,-8e-05,-7e-05,-2e-05,-2e-05,-3e-05,1,2.0
3068,-3e-05,-5e-05,-0.00012,-8e-05,-7e-05,-2e-05,-2e-05,-3e-05,1,2.0
3069,-3e-05,-5e-05,-0.00012,-8e-05,-7e-05,-2e-05,-2e-05,-3e-05,1,2.0
3070,-3e-05,-5e-05,-0.00012,-8e-05,-7e-05,-2e-05,-2e-05,-3e-05,1,2.0
3071,-3e-05,-5e-05,-0.00012,-8e-05,-7e-05,-2e-05,-2e-05,-3e-05,1,2.0
3072,-3e-05,-5e-05,-0.00012,-8e-05,-7e-05,-2e-05,-2e-05,-3e-05,1,2.0
3073,-3e-05,-5e-05,-0.00012,-8e-05,-7e-05,-2e-05,-2e-05,-3e-05,1,2.0
3074,-3e-05,-5e-05,-0.00012,-8e-05,-7e-05,-2e-05,-2e-05,-3e-05,1,2.0
3075,-3e-05,-5e-05,-0.00012,-8e-05,-7e-05,-2e-05,-2e-05,-3e-05,1,2.0
3076,-3e-05,-5e-05,-0.00012,-8e-05,-7e-05,-2e-05,-2e-05,-3e-05,1,2.0
3077,-3e-05,-3e-05,6e-05,-6e-05,-0.00021,0.00011,-1e-05,0.0,1,2.0
3078,-3e-05,-3e-05,6e-05,-6e-05,-0.00021,0.00011,-1e-05,0.0,1,2.0
3079,-3e-05,-3e-05,6e-05,-6e-05,-0.00021,0.00011,-1e-05,0.0,1,2.0
3080,-3e-05,-3e-05,6e-05,-6e-05,-0.00021,0.00011,-1e-05,0.0,1,2.0
3081,-3e-05,-3e-05,6e-05,-6e-05,-0.00021,0.00011,-1e-05,0.0,1,2.0
3082,0.0,-4e-05,-3e-05,0.00014,0.00025,1e-05,-1e-05,3e-05,1,2.0
3083,2e-05,-1e-05,3e-05,1e-05,-2e-05,-8e-05,1e-05,-1e-05,1,2.0
3084,2e-05,-1e-05,3e-05,1e-05,-2e-05,-8e-05,1e-05,-1e-05,1,2.0
3085,2e-05,-1e-05,3e-05,1e-05,-2e-05,-8e-05,1e-05,-1e-05,1,2.0
3086,2e-05,-1e-05,3e-05,1e-05,-2e-05,-8e-05,1e-05,-1e-05,1,2.0
3088,2e-05,-1e-05,3e-05,1e-05,-2e-05,-8e-05,1e-05,-1e-05,1,2.0
3089,2e-05,-1e-05,3e-05,1e-05,-2e-05,-8e-05,1e-05,-1e-05,1,2.0
3090,2e-05,-1e-05,3e-05,1e-05,-2e-05,-8e-05,1e-05,-1e-05,1,2.0
3091,1e-05,-3e-05,-4e-05,-4e-05,0.0001,5e-05,-4e-05,-2e-05,1,2.0
3092,1e-05,-3e-05,-4e-05,-4e-05,0.0001,5e-05,-4e-05,-2e-05,1,2.0
3093,1e-05,-3e-05,-4e-05,-4e-05,0.0001,5e-05,-4e-05,-2e-05,1,2.0
3094,1e-05,-3e-05,-4e-05,-4e-05,0.0001,5e-05,-4e-05,-2e-05,1,2.0
3095,1e-05,-3e-05,-4e-05,-4e-05,0.0001,5e-05,-4e-05,-2e-05,1,2.0
3096,1e-05,-3e-05,-4e-05,-4e-05,0.0001,5e-05,-4e-05,-2e-05,1,2.0
3097,-2e-05,1e-05,-2e-05,-0.00013,5e-05,8e-05,-3e-05,-3e-05,1,2.0
3098,-2e-05,1e-05,-2e-05,-0.00013,5e-05,8e-05,-3e-05,-3e-05,1,2.0
3099,-2e-05,1e-05,-2e-05,-0.00013,5e-05,8e-05,-3e-05,-3e-05,1,2.0
3100,-2e-05,1e-05,-2e-05,-0.00013,5e-05,8e-05,-3e-05,-3e-05,1,2.0
3101,-2e-05,1e-05,-2e-05,-0.00013,5e-05,8e-05,-3e-05,-3e-05,1,2.0
3102,-2e-05,1e-05,-2e-05,-0.00013,5e-05,8e-05,-3e-05,-3e-05,1,2.0
3103,-2e-05,1e-05,-2e-05,-0.00013,5e-05,8e-05,-3e-05,-3e-05,1,2.0
3104,-2e-05,1e-05,-2e-05,-0.00013,5e-05,8e-05,-3e-05,-3e-05,1,2.0
3105,-2e-05,1e-05,-2e-05,-0.00013,5e-05,8e-05,-3e-05,-3e-05,1,2.0
3106,-2e-05,1e-05,-2e-05,-0.00013,5e-05,8e-05,-3e-05,-3e-05,1,2.0
3107,-2e-05,1e-05,-2e-05,-0.00013,5e-05,8e-05,-3e-05,-3e-05,1,2.0
3108,-2e-05,1e-05,-2e-05,-0.00013,5e-05,8e-05,-3e-05,-3e-05,1,2.0
3109,-2e-05,1e-05,-2e-05,-0.00013,5e-05,8e-05,-3e-05,-3e-05,1,2.0
3110,-2e-05,1e-05,-2e-05,-0.00013,5e-05,8e-05,-3e-05,-3e-05,1,2.0
3111,-2e-05,1e-05,-2e-05,-0.00013,5e-05,8e-05,-3e-05,-3e-05,1,2.0
3112,-2e-05,1e-05,-2e-05,-0.00013,5e-05,8e-05,-3e-05,-3e-05,1,2.0
3113,-2e-05,1e-05,-2e-05,-0.00013,5e-05,8e-05,-3e-05,-3e-05,1,2.0
3114,2e-05,0.0,-3e-05,-7e-05,0.00014,6e-05,0.0,1e-05,1,2.0
3115,-4e-05,4e-05,2e-05,7e-05,7e-05,0.0,3e-05,3e-05,1,2.0
3116,-4e-05,4e-05,2e-05,7e-05,7e-05,0.0,3e-05,3e-05,1,2.0
3117,-4e-05,4e-05,2e-05,7e-05,7e-05,0.0,3e-05,3e-05,1,2.0
3118,-4e-05,4e-05,2e-05,7e-05,7e-05,0.0,3e-05,3e-05,1,2.0
3119,-4e-05,4e-05,2e-05,7e-05,7e-05,0.0,3e-05,3e-05,1,2.0
3120,-4e-05,4e-05,2e-05,7e-05,7e-05,0.0,3e-05,3e-05,1,2.0
3121,-4e-05,4e-05,2e-05,7e-05,7e-05,0.0,3e-05,3e-05,1,2.0
3122,-4e-05,4e-05,2e-05,7e-05,7e-05,0.0,3e-05,3e-05,1,2.0
3123,-4e-05,4e-05,2e-05,7e-05,7e-05,0.0,3e-05,3e-05,1,2.0
3124,-4e-05,4e-05,2e-05,7e-05,7e-05,0.0,3e-05,3e-05,1,2.0
3125,-4e-05,4e-05,2e-05,7e-05,7e-05,0.0,3e-05,3e-05,1,2.0
3126,-4e-05,4e-05,2e-05,7e-05,7e-05,0.0,3e-05,3e-05,1,2.0
3127,-4e-05,4e-05,2e-05,7e-05,7e-05,0.0,3e-05,3e-05,1,2.0
3128,-4e-05,4e-05,2e-05,7e-05,7e-05,0.0,3e-05,3e-05,1,2.0
3129,-4e-05,4e-05,2e-05,7e-05,7e-05,0.0,3e-05,3e-05,1,2.0
3130,-4e-05,4e-05,2e-05,7e-05,7e-05,0.0,3e-05,3e-05,1,2.0
3131,-4e-05,4e-05,2e-05,7e-05,7e-05,0.0,3e-05,3e-05,1,2.0
3132,-4e-05,4e-05,2e-05,7e-05,7e-05,0.0,3e-05,3e-05,1,2.0
3133,-4e-05,4e-05,2e-05,7e-05,7e-05,0.0,3e-05,3e-05,1,2.0
3134,-4e-05,4e-05,2e-05,7e-05,7e-05,0.0,3e-05,3e-05,1,2.0
3135,-4e-05,4e-05,2e-05,7e-05,7e-05,0.0,3e-05,3e-05,1,2.0
3136,-6e-05,-3e-05,-1e-05,0.00014,-0.00011,1e-05,-1e-05,-1e-05,1,2.0
3138,-2e-05,0.0,-4e-05,5e-05,0.00019,-1e-05,0.0,-2e-05,1,2.0
3139,-2e-05,0.0,-4e-05,5e-05,0.00019,-1e-05,0.0,-2e-05,1,2.0
3140,-2e-05,0.0,-4e-05,5e-05,0.00019,-1e-05,0.0,-2e-05,1,2.0
3141,-2e-05,0.0,-4e-05,5e-05,0.00019,-1e-05,0.0,-2e-05,1,2.0
3142,-2e-05,0.0,-4e-05,5e-05,0.00019,-1e-05,0.0,-2e-05,1,2.0
3143,-2e-05,0.0,-4e-05,5e-05,0.00019,-1e-05,0.0,-2e-05,1,2.0
3144,-2e-05,0.0,-4e-05,5e-05,0.00019,-1e-05,0.0,-2e-05,1,2.0
3145,-2e-05,0.0,-4e-05,5e-05,0.00019,-1e-05,0.0,-2e-05,1,2.0
3146,-2e-05,0.0,-4e-05,5e-05,0.00019,-1e-05,0.0,-2e-05,1,2.0
3147,-2e-05,0.0,-4e-05,5e-05,0.00019,-1e-05,0.0,-2e-05,1,2.0
3148,-2e-05,0.0,-4e-05,5e-05,0.00019,-1e-05,0.0,-2e-05,1,2.0
3149,-2e-05,0.0,-4e-05,5e-05,0.00019,-1e-05,0.0,-2e-05,1,2.0
3150,-2e-05,0.0,-4e-05,5e-05,0.00019,-1e-05,0.0,-2e-05,1,2.0
3151,0.0,1e-05,3e-05,-0.0001,-0.0001,6e-05,0.0,-1e-05,1,2.0
3152,0.0,1e-05,3e-05,-0.0001,-0.0001,6e-05,0.0,-1e-05,1,2.0
3153,0.0,1e-05,3e-05,-0.0001,-0.0001,6e-05,0.0,-1e-05,1,2.0
3154,0.0,1e-05,3e-05,-0.0001,-0.0001,6e-05,0.0,-1e-05,1,2.0
3155,0.0,1e-05,3e-05,-0.0001,-0.0001,6e-05,0.0,-1e-05,1,2.0
3156,0.0,1e-05,3e-05,-0.0001,-0.0001,6e-05,0.0,-1e-05,1,2.0
3157,0.0,1e-05,3e-05,-0.0001,-0.0001,6e-05,0.0,-1e-05,1,2.0
3158,1e-05,-1e-05,0.00014,0.00029,0.00018,-7e-05,0.0,-1e-05,1,2.0
3159,1e-05,-1e-05,0.00014,0.00029,0.00018,-7e-05,0.0,-1e-05,1,2.0
3160,1e-05,-1e-05,0.00014,0.00029,0.00018,-7e-05,0.0,-1e-05,1,2.0
3161,1e-05,-1e-05,0.00014,0.00029,0.00018,-7e-05,0.0,-1e-05,1,2.0
3162,1e-05,-1e-05,0.00014,0.00029,0.00018,-7e-05,0.0,-1e-05,1,2.0
3163,1e-05,-1e-05,0.00014,0.00029,0.00018,-7e-05,0.0,-1e-05,1,2.0
3164,1e-05,-1e-05,0.00014,0.00029,0.00018,-7e-05,0.0,-1e-05,1,2.0
3165,1e-05,-1e-05,0.00014,0.00029,0.00018,-7e-05,0.0,-1e-05,1,2.0
3166,1e-05,-1e-05,0.00014,0.00029,0.00018,-7e-05,0.0,-1e-05,1,2.0
3167,1e-05,-1e-05,0.00014,0.00029,0.00018,-7e-05,0.0,-1e-05,1,2.0
3168,1e-05,-1e-05,0.00014,0.00029,0.00018,-7e-05,0.0,-1e-05,1,2.0
3169,1e-05,-1e-05,0.00014,0.00029,0.00018,-7e-05,0.0,-1e-05,1,2.0
3170,1e-05,-1e-05,0.00014,0.00029,0.00018,-7e-05,0.0,-1e-05,1,2.0
3171,1e-05,-1e-05,0.00014,0.00029,0.00018,-7e-05,0.0,-1e-05,1,2.0
3172,1e-05,-1e-05,0.00014,0.00029,0.00018,-7e-05,0.0,-1e-05,1,2.0
3173,1e-05,-1e-05,0.00014,0.00029,0.00018,-7e-05,0.0,-1e-05,1,2.0
3174,-3e-05,-4e-05,-6e-05,-9e-05,0.00014,-1e-05,-4e-05,-2e-05,1,2.0
3175,-1e-05,2e-05,-3e-05,-9e-05,-4e-05,0.0,-6e-05,1e-05,1,2.0
3176,-1e-05,2e-05,-3e-05,-9e-05,-4e-05,0.0,-6e-05,1e-05,1,2.0
3177,-1e-05,2e-05,-3e-05,-9e-05,-4e-05,0.0,-6e-05,1e-05,1,2.0
3178,-1e-05,2e-05,-3e-05,-9e-05,-4e-05,0.0,-6e-05,1e-05,1,2.0
3179,-1e-05,2e-05,-3e-05,-9e-05,-4e-05,0.0,-6e-05,1e-05,1,2.0
3180,-1e-05,2e-05,-3e-05,-9e-05,-4e-05,0.0,-6e-05,1e-05,1,2.0
3181,-1e-05,2e-05,-3e-05,-9e-05,-4e-05,0.0,-6e-05,1e-05,1,2.0
3182,-1e-05,2e-05,-3e-05,-9e-05,-4e-05,0.0,-6e-05,1e-05,1,2.0
3183,-1e-05,2e-05,-3e-05,-9e-05,-4e-05,0.0,-6e-05,1e-05,1,2.0
3184,-1e-05,2e-05,-3e-05,-9e-05,-4e-05,0.0,-6e-05,1e-05,1,2.0
3185,-1e-05,2e-05,-3e-05,-9e-05,-4e-05,0.0,-6e-05,1e-05,1,2.0
3186,-1e-05,2e-05,-3e-05,-9e-05,-4e-05,0.0,-6e-05,1e-05,1,2.0
3188,-1e-05,2e-05,-3e-05,-9e-05,-4e-05,0.0,-6e-05,1e-05,1,2.0
3189,-1e-05,2e-05,-3e-05,-9e-05,-4e-05,0.0,-6e-05,1e-05,1,2.0
3190,-1e-05,2e-05,-3e-05,-9e-05,-4e-05,0.0,-6e-05,1e-05,1,2.0
3191,-1e-05,2e-05,-3e-05,-9e-05,-4e-05,0.0,-6e-05,1e-05,1,2.0
3192,-1e-05,2e-05,-3e-05,-9e-05,-4e-05,0.0,-6e-05,1e-05,1,2.0
3193,-1e-05,2e-05,-3e-05,-9e-05,-4e-05,0.0,-6e-05,1e-05,1,2.0
3194,-1e-05,2e-05,-3e-05,-9e-05,-4e-05,0.0,-6e-05,1e-05,1,2.0
3195,0.0,-1e-05,-3e-05,-3e-05,0.00023,-3e-05,-2e-05,2e-05,1,2.0
3196,0.0,-5e-05,-1e-05,-2e-05,-0.00018,0.0,1e-05,0.0,1,2.0
3197,0.0,-5e-05,-1e-05,-2e-05,-0.00018,0.0,1e-05,0.0,1,2.0
3198,0.0,-5e-05,-1e-05,-2e-05,-0.00018,0.0,1e-05,0.0,1,2.0
3199,0.0,-5e-05,-1e-05,-2e-05,-0.00018,0.0,1e-05,0.0,1,2.0
3200,0.0,-5e-05,-1e-05,-2e-05,-0.00018,0.0,1e-05,0.0,1,2.0
3201,0.0,-5e-05,-1e-05,-2e-05,-0.00018,0.0,1e-05,0.0,1,2.0
3202,0.0,-5e-05,-1e-05,-2e-05,-0.00018,0.0,1e-05,0.0,1,2.0
3203,0.0,-5e-05,-1e-05,-2e-05,-0.00018,0.0,1e-05,0.0,1,2.0
3204,-2e-05,0.0,8e-05,0.00019,0.00025,4e-05,-1e-05,-2e-05,1,2.0
3205,-2e-05,0.0,8e-05,0.00019,0.00025,4e-05,-1e-05,-2e-05,1,2.0
3206,-2e-05,0.0,8e-05,0.00019,0.00025,4e-05,-1e-05,-2e-05,1,2.0
3207,-2e-05,0.0,8e-05,0.00019,0.00025,4e-05,-1e-05,-2e-05,1,2.0
3208,-2e-05,0.0,8e-05,0.00019,0.00025,4e-05,-1e-05,-2e-05,1,2.0
3209,-2e-05,0.0,8e-05,0.00019,0.00025,4e-05,-1e-05,-2e-05,1,2.0
3210,-2e-05,0.0,8e-05,0.00019,0.00025,4e-05,-1e-05,-2e-05,1,2.0
3211,-5e-05,-8e-05,-0.0001,-0.00013,0.00035,0.0002,4e-05,-1e-05,1,2.0
3212,-5e-05,-8e-05,-0.0001,-0.00013,0.00035,0.0002,4e-05,-1e-05,1,2.0
3213,-5e-05,-8e-05,-0.0001,-0.00013,0.00035,0.0002,4e-05,-1e-05,1,2.0
3214,-5e-05,-8e-05,-0.0001,-0.00013,0.00035,0.0002,4e-05,-1e-05,1,2.0
3215,-5e-05,-8e-05,-0.0001,-0.00013,0.00035,0.0002,4e-05,-1e-05,1,2.0
3216,-5e-05,-8e-05,-0.0001,-0.00013,0.00035,0.0002,4e-05,-1e-05,1,2.0
3217,-3e-05,-1e-05,-1e-05,1e-05,5e-05,-2e-05,0.0,0.0,1,2.0
3218,-3e-05,-1e-05,-1e-05,1e-05,5e-05,-2e-05,0.0,0.0,1,2.0
3219,-3e-05,-1e-05,-1e-05,1e-05,5e-05,-2e-05,0.0,0.0,1,2.0
3220,-3e-05,-1e-05,-1e-05,1e-05,5e-05,-2e-05,0.0,0.0,1,2.0
3221,-3e-05,-1e-05,-1e-05,1e-05,5e-05,-2e-05,0.0,0.0,1,2.0
3222,-3e-05,-1e-05,-1e-05,1e-05,5e-05,-2e-05,0.0,0.0,1,2.0
3223,-3e-05,-1e-05,-1e-05,1e-05,5e-05,-2e-05,0.0,0.0,1,2.0
3224,-3e-05,-1e-05,-1e-05,1e-05,5e-05,-2e-05,0.0,0.0,1,2.0
3225,-3e-05,-1e-05,-1e-05,1e-05,5e-05,-2e-05,0.0,0.0,1,2.0
3226,-3e-05,-1e-05,-1e-05,1e-05,5e-05,-2e-05,0.0,0.0,1,2.0
3227,-3e-05,-1e-05,-1e-05,1e-05,5e-05,-2e-05,0.0,0.0,1,2.0
3228,-3e-05,-1e-05,-1e-05,1e-05,5e-05,-2e-05,0.0,0.0,1,2.0
3229,-3e-05,-1e-05,-1e-05,1e-05,5e-05,-2e-05,0.0,0.0,1,2.0
3230,-3e-05,-1e-05,-1e-05,1e-05,5e-05,-2e-05,0.0,0.0,1,2.0
3231,-3e-05,-1e-05,-1e-05,1e-05,5e-05,-2e-05,0.0,0.0,1,2.0
3232,-3e-05,-1e-05,-1e-05,1e-05,5e-05,-2e-05,0.0,0.0,1,2.0
3233,-3e-05,-1e-05,-1e-05,1e-05,5e-05,-2e-05,0.0,0.0,1,2.0
3234,0.0,4e-05,7e-05,0.00011,-2e-05,0.00011,-1e-05,0.0,1,2.0
3235,2e-05,-1e-05,1e-05,-0.00025,-0.00018,2e-05,1e-05,1e-05,1,2.0
3236,2e-05,-1e-05,1e-05,-0.00025,-0.00018,2e-05,1e-05,1e-05,1,2.0
3238,2e-05,-1e-05,1e-05,-0.00025,-0.00018,2e-05,1e-05,1e-05,1,2.0
3239,2e-05,-1e-05,1e-05,-0.00025,-0.00018,2e-05,1e-05,1e-05,1,2.0
3240,2e-05,-1e-05,1e-05,-0.00025,-0.00018,2e-05,1e-05,1e-05,1,2.0
3241,2e-05,-1e-05,1e-05,-0.00025,-0.00018,2e-05,1e-05,1e-05,1,2.0
3242,2e-05,-1e-05,1e-05,-0.00025,-0.00018,2e-05,1e-05,1e-05,1,2.0
3243,2e-05,-1e-05,1e-05,-0.00025,-0.00018,2e-05,1e-05,1e-05,1,2.0
3244,2e-05,-1e-05,1e-05,-0.00025,-0.00018,2e-05,1e-05,1e-05,1,2.0
3245,2e-05,-1e-05,1e-05,-0.00025,-0.00018,2e-05,1e-05,1e-05,1,2.0
3246,2e-05,-1e-05,1e-05,-0.00025,-0.00018,2e-05,1e-05,1e-05,1,2.0
3247,2e-05,-1e-05,1e-05,-0.00025,-0.00018,2e-05,1e-05,1e-05,1,2.0
3248,2e-05,-1e-05,1e-05,-0.00025,-0.00018,2e-05,1e-05,1e-05,1,2.0
3249,2e-05,-1e-05,1e-05,-0.00025,-0.00018,2e-05,1e-05,1e-05,1,2.0
3250,2e-05,-1e-05,1e-05,-0.00025,-0.00018,2e-05,1e-05,1e-05,1,2.0
3251,2e-05,-1e-05,1e-05,-0.00025,-0.00018,2e-05,1e-05,1e-05,1,2.0
3252,2e-05,-1e-05,1e-05,-0.00025,-0.00018,2e-05,1e-05,1e-05,1,2.0
3253,2e-05,-1e-05,1e-05,-0.00025,-0.00018,2e-05,1e-05,1e-05,1,2.0
3254,2e-05,-1e-05,1e-05,-0.00025,-0.00018,2e-05,1e-05,1e-05,1,2.0
3255,2e-05,-1e-05,1e-05,-0.00025,-0.00018,2e-05,1e-05,1e-05,1,2.0
3256,-4e-05,-5e-05,-7e-05,2e-05,0.00016,-0.00011,-5e-05,-2e-05,1,2.0
3257,-1e-05,0.0,2e-05,-0.00011,-5e-05,-7e-05,-2e-05,-2e-05,1,2.0
3258,2e-05,-1e-05,-1e-05,-5e-05,-0.00022,-5e-05,1e-05,0.0,1,2.0
3259,2e-05,-1e-05,-1e-05,-5e-05,-0.00022,-5e-05,1e-05,0.0,1,2.0
3260,2e-05,-1e-05,-1e-05,-5e-05,-0.00022,-5e-05,1e-05,0.0,1,2.0
3261,2e-05,-1e-05,-1e-05,-5e-05,-0.00022,-5e-05,1e-05,0.0,1,2.0
3262,2e-05,-1e-05,-1e-05,-5e-05,-0.00022,-5e-05,1e-05,0.0,1,2.0
3263,2e-05,-1e-05,-1e-05,-5e-05,-0.00022,-5e-05,1e-05,0.0,1,2.0
3264,2e-05,-1e-05,-1e-05,-5e-05,-0.00022,-5e-05,1e-05,0.0,1,2.0
3265,2e-05,-1e-05,-1e-05,-5e-05,-0.00022,-5e-05,1e-05,0.0,1,2.0
3266,2e-05,-1e-05,-1e-05,-5e-05,-0.00022,-5e-05,1e-05,0.0,1,2.0
3267,2e-05,-1e-05,-1e-05,-5e-05,-0.00022,-5e-05,1e-05,0.0,1,2.0
3268,2e-05,-1e-05,-1e-05,-5e-05,-0.00022,-5e-05,1e-05,0.0,1,2.0
3269,2e-05,-1e-05,-1e-05,-5e-05,-0.00022,-5e-05,1e-05,0.0,1,2.0
3270,2e-05,-1e-05,-1e-05,-5e-05,-0.00022,-5e-05,1e-05,0.0,1,2.0
3271,3e-05,-1e-05,0.0,1e-05,-0.00011,-5e-05,-1e-05,-2e-05,1,2.0
3272,3e-05,-1e-05,0.0,1e-05,-0.00011,-5e-05,-1e-05,-2e-05,1,2.0
3273,3e-05,-1e-05,0.0,1e-05,-0.00011,-5e-05,-1e-05,-2e-05,1,2.0
3274,3e-05,-1e-05,0.0,1e-05,-0.00011,-5e-05,-1e-05,-2e-05,1,2.0
3275,3e-05,-1e-05,0.0,1e-05,-0.00011,-5e-05,-1e-05,-2e-05,1,2.0
3276,3e-05,-1e-05,0.0,1e-05,-0.00011,-5e-05,-1e-05,-2e-05,1,2.0
3277,-3e-05,1e-05,3e-05,-3e-05,-0.00014,9e-05,1e-05,-2e-05,1,2.0
3278,1e-05,-1e-05,-2e-05,3e-05,0.00029,5e-05,-2e-05,-1e-05,1,2.0
3279,1e-05,-1e-05,-2e-05,3e-05,0.00029,5e-05,-2e-05,-1e-05,1,2.0
3280,1e-05,-1e-05,-2e-05,3e-05,0.00029,5e-05,-2e-05,-1e-05,1,2.0
3281,1e-05,-1e-05,-2e-05,3e-05,0.00029,5e-05,-2e-05,-1e-05,1,2.0
3282,1e-05,-1e-05,-2e-05,3e-05,0.00029,5e-05,-2e-05,-1e-05,1,2.0
3283,1e-05,-1e-05,-2e-05,3e-05,0.00029,5e-05,-2e-05,-1e-05,1,2.0
3284,1e-05,-1e-05,-2e-05,3e-05,0.00029,5e-05,-2e-05,-1e-05,1,2.0
3285,1e-05,-1e-05,-2e-05,3e-05,0.00029,5e-05,-2e-05,-1e-05,1,2.0
3286,1e-05,-1e-05,-2e-05,3e-05,0.00029,5e-05,-2e-05,-1e-05,1,2.0
3288,1e-05,-1e-05,-2e-05,3e-05,0.00029,5e-05,-2e-05,-1e-05,1,2.0
3289,1e-05,-1e-05,-2e-05,3e-05,0.00029,5e-05,-2e-05,-1e-05,1,2.0
3290,1e-05,-1e-05,-2e-05,3e-05,0.00029,5e-05,-2e-05,-1e-05,1,2.0
3291,1e-05,-1e-05,-2e-05,3e-05,0.00029,5e-05,-2e-05,-1e-05,1,2.0
3292,1e-05,-1e-05,-2e-05,3e-05,0.00029,5e-05,-2e-05,-1e-05,1,2.0
3293,1e-05,-1e-05,-2e-05,3e-05,0.00029,5e-05,-2e-05,-1e-05,1,2.0
3294,-3e-05,-4e-05,2e-05,-4e-05,-5e-05,0.0,-2e-05,-3e-05,1,2.0
3295,-3e-05,-5e-05,-7e-05,-0.0001,-0.00022,-1e-05,-4e-05,-3e-05,1,2.0
3296,-3e-05,-5e-05,-7e-05,-0.0001,-0.00022,-1e-05,-4e-05,-3e-05,1,2.0
3297,-3e-05,-5e-05,-7e-05,-0.0001,-0.00022,-1e-05,-4e-05,-3e-05,1,2.0
3298,-3e-05,-5e-05,-7e-05,-0.0001,-0.00022,-1e-05,-4e-05,-3e-05,1,2.0
3299,-3e-05,-5e-05,-7e-05,-0.0001,-0.00022,-1e-05,-4e-05,-3e-05,1,2.0
3301,-3e-05,-5e-05,-7e-05,-0.0001,-0.00022,-1e-05,-4e-05,-3e-05,1,2.0
3302,-3e-05,-5e-05,-7e-05,-0.0001,-0.00022,-1e-05,-4e-05,-3e-05,1,2.0
3303,-3e-05,-5e-05,-7e-05,-0.0001,-0.00022,-1e-05,-4e-05,-3e-05,1,2.0
3304,-3e-05,-5e-05,-7e-05,-0.0001,-0.00022,-1e-05,-4e-05,-3e-05,1,2.0
3305,-3e-05,-5e-05,-7e-05,-0.0001,-0.00022,-1e-05,-4e-05,-3e-05,1,2.0
3306,-3e-05,-5e-05,-7e-05,-0.0001,-0.00022,-1e-05,-4e-05,-3e-05,1,2.0
3307,-3e-05,-5e-05,-7e-05,-0.0001,-0.00022,-1e-05,-4e-05,-3e-05,1,2.0
3308,-3e-05,-5e-05,-7e-05,-0.0001,-0.00022,-1e-05,-4e-05,-3e-05,1,2.0
3309,-3e-05,-5e-05,-7e-05,-0.0001,-0.00022,-1e-05,-4e-05,-3e-05,1,2.0
3310,-3e-05,-5e-05,-7e-05,-0.0001,-0.00022,-1e-05,-4e-05,-3e-05,1,2.0
3311,-3e-05,-5e-05,-7e-05,-0.0001,-0.00022,-1e-05,-4e-05,-3e-05,1,2.0
3312,-3e-05,-5e-05,-7e-05,-0.0001,-0.00022,-1e-05,-4e-05,-3e-05,1,2.0
3313,-3e-05,-5e-05,-7e-05,-0.0001,-0.00022,-1e-05,-4e-05,-3e-05,1,2.0
3314,-3e-05,-5e-05,-7e-05,-0.0001,-0.00022,-1e-05,-4e-05,-3e-05,1,2.0
3315,-3e-05,-5e-05,-7e-05,-0.0001,-0.00022,-1e-05,-4e-05,-3e-05,1,2.0
3316,-2e-05,3e-05,3e-05,3e-05,2e-05,-2e-05,-2e-05,1e-05,1,2.0
3317,-2e-05,3e-05,3e-05,3e-05,2e-05,-2e-05,-2e-05,1e-05,1,2.0
3318,-3e-05,4e-05,-7e-05,2e-05,3e-05,0.0,0.0,0.0,1,2.0
3319,-3e-05,4e-05,-7e-05,2e-05,3e-05,0.0,0.0,0.0,1,2.0
3320,-3e-05,4e-05,-7e-05,2e-05,3e-05,0.0,0.0,0.0,1,2.0
3321,-3e-05,4e-05,-7e-05,2e-05,3e-05,0.0,0.0,0.0,1,2.0
3322,-3e-05,4e-05,-7e-05,2e-05,3e-05,0.0,0.0,0.0,1,2.0
3323,-3e-05,4e-05,-7e-05,2e-05,3e-05,0.0,0.0,0.0,1,2.0
3324,-3e-05,4e-05,-7e-05,2e-05,3e-05,0.0,0.0,0.0,1,2.0
3325,-3e-05,4e-05,-7e-05,2e-05,3e-05,0.0,0.0,0.0,1,2.0
3326,-3e-05,4e-05,-7e-05,2e-05,3e-05,0.0,0.0,0.0,1,2.0
3327,-3e-05,4e-05,-7e-05,2e-05,3e-05,0.0,0.0,0.0,1,2.0
3328,-3e-05,4e-05,-7e-05,2e-05,3e-05,0.0,0.0,0.0,1,2.0
3329,-3e-05,4e-05,-7e-05,2e-05,3e-05,0.0,0.0,0.0,1,2.0
3330,-3e-05,4e-05,-7e-05,2e-05,3e-05,0.0,0.0,0.0,1,2.0
3331,-1e-05,-1e-05,-5e-05,-2e-05,2e-05,-1e-05,-3e-05,0.0,1,2.0
3332,-1e-05,-1e-05,-5e-05,-2e-05,2e-05,-1e-05,-3e-05,0.0,1,2.0
3333,-1e-05,-1e-05,-5e-05,-2e-05,2e-05,-1e-05,-3e-05,0.0,1,2.0
3334,-1e-05,-1e-05,-5e-05,-2e-05,2e-05,-1e-05,-3e-05,0.0,1,2.0
3335,-1e-05,-1e-05,-5e-05,-2e-05,2e-05,-1e-05,-3e-05,0.0,1,2.0
3336,-1e-05,-1e-05,-5e-05,-2e-05,2e-05,-1e-05,-3e-05,0.0,1,2.0
3338,0.0,2e-05,3e-05,4e-05,-0.00013,4e-05,1e-05,1e-05,1,2.0
3339,0.0,2e-05,3e-05,4e-05,-0.00013,4e-05,1e-05,1e-05,1,2.0
3340,0.0,2e-05,3e-05,4e-05,-0.00013,4e-05,1e-05,1e-05,1,2.0
3341,0.0,2e-05,3e-05,4e-05,-0.00013,4e-05,1e-05,1e-05,1,2.0
3342,0.0,2e-05,3e-05,4e-05,-0.00013,4e-05,1e-05,1e-05,1,2.0
3343,0.0,2e-05,3e-05,4e-05,-0.00013,4e-05,1e-05,1e-05,1,2.0
3344,0.0,2e-05,3e-05,4e-05,-0.00013,4e-05,1e-05,1e-05,1,2.0
3345,0.0,2e-05,3e-05,4e-05,-0.00013,4e-05,1e-05,1e-05,1,2.0
3346,0.0,2e-05,3e-05,4e-05,-0.00013,4e-05,1e-05,1e-05,1,2.0
3347,0.0,2e-05,3e-05,4e-05,-0.00013,4e-05,1e-05,1e-05,1,2.0
3348,0.0,2e-05,3e-05,4e-05,-0.00013,4e-05,1e-05,1e-05,1,2.0
3349,0.0,2e-05,3e-05,4e-05,-0.00013,4e-05,1e-05,1e-05,1,2.0
3350,0.0,2e-05,3e-05,4e-05,-0.00013,4e-05,1e-05,1e-05,1,2.0
3351,0.0,2e-05,3e-05,4e-05,-0.00013,4e-05,1e-05,1e-05,1,2.0
3352,0.0,2e-05,3e-05,4e-05,-0.00013,4e-05,1e-05,1e-05,1,2.0
3353,0.0,2e-05,3e-05,4e-05,-0.00013,4e-05,1e-05,1e-05,1,2.0
3354,-2e-05,-2e-05,0.0,5e-05,0.0,-2e-05,1e-05,1e-05,1,2.0
3355,-1e-05,-5e-05,0.0,0.00011,5e-05,-0.0001,-3e-05,-3e-05,1,2.0
3356,-1e-05,-5e-05,0.0,0.00011,5e-05,-0.0001,-3e-05,-3e-05,1,2.0
3357,-1e-05,-5e-05,0.0,0.00011,5e-05,-0.0001,-3e-05,-3e-05,1,2.0
3358,-1e-05,-5e-05,0.0,0.00011,5e-05,-0.0001,-3e-05,-3e-05,1,2.0
3359,-1e-05,-5e-05,0.0,0.00011,5e-05,-0.0001,-3e-05,-3e-05,1,2.0
3360,-1e-05,-5e-05,0.0,0.00011,5e-05,-0.0001,-3e-05,-3e-05,1,2.0
3361,-1e-05,-5e-05,0.0,0.00011,5e-05,-0.0001,-3e-05,-3e-05,1,2.0
3362,-1e-05,-5e-05,0.0,0.00011,5e-05,-0.0001,-3e-05,-3e-05,1,2.0
3363,-1e-05,-5e-05,0.0,0.00011,5e-05,-0.0001,-3e-05,-3e-05,1,2.0
3364,-1e-05,-5e-05,0.0,0.00011,5e-05,-0.0001,-3e-05,-3e-05,1,2.0
3365,-1e-05,-5e-05,0.0,0.00011,5e-05,-0.0001,-3e-05,-3e-05,1,2.0
3366,-1e-05,-5e-05,0.0,0.00011,5e-05,-0.0001,-3e-05,-3e-05,1,2.0
3367,-1e-05,-5e-05,0.0,0.00011,5e-05,-0.0001,-3e-05,-3e-05,1,2.0
3368,-1e-05,-5e-05,0.0,0.00011,5e-05,-0.0001,-3e-05,-3e-05,1,2.0
3369,-1e-05,-5e-05,0.0,0.00011,5e-05,-0.0001,-3e-05,-3e-05,1,2.0
3370,-1e-05,-5e-05,0.0,0.00011,5e-05,-0.0001,-3e-05,-3e-05,1,2.0
3371,-1e-05,-5e-05,0.0,0.00011,5e-05,-0.0001,-3e-05,-3e-05,1,2.0
3372,-1e-05,-5e-05,0.0,0.00011,5e-05,-0.0001,-3e-05,-3e-05,1,2.0
3373,-1e-05,-5e-05,0.0,0.00011,5e-05,-0.0001,-3e-05,-3e-05,1,2.0
3374,-1e-05,-5e-05,0.0,0.00011,5e-05,-0.0001,-3e-05,-3e-05,1,2.0
3375,-1e-05,-5e-05,0.0,0.00011,5e-05,-0.0001,-3e-05,-3e-05,1,2.0
3376,-4e-05,1e-05,6e-05,0.0001,0.00031,-1e-05,-4e-05,-2e-05,1,2.0
3377,-4e-05,1e-05,6e-05,0.0001,0.00031,-1e-05,-4e-05,-2e-05,1,2.0
3378,2e-05,-3e-05,-9e-05,-0.00015,-0.00011,9e-05,-3e-05,1e-05,1,2.0
3379,2e-05,-3e-05,-9e-05,-0.00015,-0.00011,9e-05,-3e-05,1e-05,1,2.0
3380,2e-05,-3e-05,-9e-05,-0.00015,-0.00011,9e-05,-3e-05,1e-05,1,2.0
3381,2e-05,-3e-05,-9e-05,-0.00015,-0.00011,9e-05,-3e-05,1e-05,1,2.0
3382,2e-05,-3e-05,-9e-05,-0.00015,-0.00011,9e-05,-3e-05,1e-05,1,2.0
3383,2e-05,-3e-05,-9e-05,-0.00015,-0.00011,9e-05,-3e-05,1e-05,1,2.0
3384,2e-05,-3e-05,-9e-05,-0.00015,-0.00011,9e-05,-3e-05,1e-05,1,2.0
3385,2e-05,-3e-05,-9e-05,-0.00015,-0.00011,9e-05,-3e-05,1e-05,1,2.0
3386,2e-05,-3e-05,-9e-05,-0.00015,-0.00011,9e-05,-3e-05,1e-05,1,2.0
3388,2e-05,-3e-05,-9e-05,-0.00015,-0.00011,9e-05,-3e-05,1e-05,1,2.0
3389,2e-05,-3e-05,-9e-05,-0.00015,-0.00011,9e-05,-3e-05,1e-05,1,2.0
3390,2e-05,-3e-05,-9e-05,-0.00015,-0.00011,9e-05,-3e-05,1e-05,1,2.0
3391,-1e-05,-2e-05,-6e-05,-3e-05,-0.00011,-0.00012,-4e-05,-8e-05,1,2.0
3392,-1e-05,-2e-05,-6e-05,-3e-05,-0.00011,-0.00012,-4e-05,-8e-05,1,2.0
3393,-1e-05,-2e-05,-6e-05,-3e-05,-0.00011,-0.00012,-4e-05,-8e-05,1,2.0
3394,-1e-05,-2e-05,-6e-05,-3e-05,-0.00011,-0.00012,-4e-05,-8e-05,1,2.0
3395,-1e-05,-2e-05,-6e-05,-3e-05,-0.00011,-0.00012,-4e-05,-8e-05,1,2.0
3396,-1e-05,-2e-05,-6e-05,-3e-05,-0.00011,-0.00012,-4e-05,-8e-05,1,2.0
3397,2e-05,-1e-05,5e-05,3e-05,-0.0001,-5e-05,0.0,-2e-05,1,2.0
3398,2e-05,-1e-05,5e-05,3e-05,-0.0001,-5e-05,0.0,-2e-05,1,2.0
3399,2e-05,-1e-05,5e-05,3e-05,-0.0001,-5e-05,0.0,-2e-05,1,2.0
3400,2e-05,-1e-05,5e-05,3e-05,-0.0001,-5e-05,0.0,-2e-05,1,2.0
3401,2e-05,-1e-05,5e-05,3e-05,-0.0001,-5e-05,0.0,-2e-05,1,2.0
3402,2e-05,-1e-05,5e-05,3e-05,-0.0001,-5e-05,0.0,-2e-05,1,2.0
3403,2e-05,-1e-05,5e-05,3e-05,-0.0001,-5e-05,0.0,-2e-05,1,2.0
3404,2e-05,-1e-05,5e-05,3e-05,-0.0001,-5e-05,0.0,-2e-05,1,2.0
3405,2e-05,-1e-05,5e-05,3e-05,-0.0001,-5e-05,0.0,-2e-05,1,2.0
3406,2e-05,-1e-05,5e-05,3e-05,-0.0001,-5e-05,0.0,-2e-05,1,2.0
3407,2e-05,-1e-05,5e-05,3e-05,-0.0001,-5e-05,0.0,-2e-05,1,2.0
3408,2e-05,-1e-05,5e-05,3e-05,-0.0001,-5e-05,0.0,-2e-05,1,2.0
3409,2e-05,-1e-05,5e-05,3e-05,-0.0001,-5e-05,0.0,-2e-05,1,2.0
3410,2e-05,-1e-05,5e-05,3e-05,-0.0001,-5e-05,0.0,-2e-05,1,2.0
3411,2e-05,-1e-05,5e-05,3e-05,-0.0001,-5e-05,0.0,-2e-05,1,2.0
3412,2e-05,-1e-05,5e-05,3e-05,-0.0001,-5e-05,0.0,-2e-05,1,2.0
3413,2e-05,-1e-05,5e-05,3e-05,-0.0001,-5e-05,0.0,-2e-05,1,2.0
3414,1e-05,-2e-05,-4e-05,-8e-05,-0.00018,-1e-05,-1e-05,2e-05,1,2.0
3415,-5e-05,-2e-05,-4e-05,-4e-05,0.00011,-2e-05,-4e-05,-3e-05,1,2.0
3416,-5e-05,-2e-05,-4e-05,-4e-05,0.00011,-2e-05,-4e-05,-3e-05,1,2.0
3417,-5e-05,-2e-05,-4e-05,-4e-05,0.00011,-2e-05,-4e-05,-3e-05,1,2.0
3418,-5e-05,-2e-05,-4e-05,-4e-05,0.00011,-2e-05,-4e-05,-3e-05,1,2.0
3419,-5e-05,-2e-05,-4e-05,-4e-05,0.00011,-2e-05,-4e-05,-3e-05,1,2.0
3420,-5e-05,-2e-05,-4e-05,-4e-05,0.00011,-2e-05,-4e-05,-3e-05,1,2.0
3421,-5e-05,-2e-05,-4e-05,-4e-05,0.00011,-2e-05,-4e-05,-3e-05,1,2.0
3422,-5e-05,-2e-05,-4e-05,-4e-05,0.00011,-2e-05,-4e-05,-3e-05,1,2.0
3423,-5e-05,-2e-05,-4e-05,-4e-05,0.00011,-2e-05,-4e-05,-3e-05,1,2.0
3424,-5e-05,-2e-05,-4e-05,-4e-05,0.00011,-2e-05,-4e-05,-3e-05,1,2.0
3425,-5e-05,-2e-05,-4e-05,-4e-05,0.00011,-2e-05,-4e-05,-3e-05,1,2.0
3426,-5e-05,-2e-05,-4e-05,-4e-05,0.00011,-2e-05,-4e-05,-3e-05,1,2.0
3427,-5e-05,-2e-05,-4e-05,-4e-05,0.00011,-2e-05,-4e-05,-3e-05,1,2.0
3428,-5e-05,-2e-05,-4e-05,-4e-05,0.00011,-2e-05,-4e-05,-3e-05,1,2.0
3429,-5e-05,-2e-05,-4e-05,-4e-05,0.00011,-2e-05,-4e-05,-3e-05,1,2.0
3430,-5e-05,-2e-05,-4e-05,-4e-05,0.00011,-2e-05,-4e-05,-3e-05,1,2.0
3431,-5e-05,-2e-05,-4e-05,-4e-05,0.00011,-2e-05,-4e-05,-3e-05,1,2.0
3432,-5e-05,-2e-05,-4e-05,-4e-05,0.00011,-2e-05,-4e-05,-3e-05,1,2.0
3433,-5e-05,-2e-05,-4e-05,-4e-05,0.00011,-2e-05,-4e-05,-3e-05,1,2.0
3434,-5e-05,-2e-05,-4e-05,-4e-05,0.00011,-2e-05,-4e-05,-3e-05,1,2.0
3435,-5e-05,-2e-05,-4e-05,-4e-05,0.00011,-2e-05,-4e-05,-3e-05,1,2.0
3436,0.0,-4e-05,1e-05,-8e-05,-0.00019,-6e-05,-1e-05,0.0,1,2.0
3438,0.0,-1e-05,-6e-05,-0.00012,5e-05,-6e-05,0.0,-1e-05,1,2.0
3439,0.0,-1e-05,-6e-05,-0.00012,5e-05,-6e-05,0.0,-1e-05,1,2.0
3440,0.0,-1e-05,-6e-05,-0.00012,5e-05,-6e-05,0.0,-1e-05,1,2.0
3442,0.0,-1e-05,-6e-05,-0.00012,5e-05,-6e-05,0.0,-1e-05,1,2.0
3443,0.0,-1e-05,-6e-05,-0.00012,5e-05,-6e-05,0.0,-1e-05,1,2.0
3444,0.0,-1e-05,-6e-05,-0.00012,5e-05,-6e-05,0.0,-1e-05,1,2.0
3445,0.0,-1e-05,-6e-05,-0.00012,5e-05,-6e-05,0.0,-1e-05,1,2.0
3446,0.0,-1e-05,-6e-05,-0.00012,5e-05,-6e-05,0.0,-1e-05,1,2.0
3447,0.0,-1e-05,-6e-05,-0.00012,5e-05,-6e-05,0.0,-1e-05,1,2.0
3448,0.0,-1e-05,-6e-05,-0.00012,5e-05,-6e-05,0.0,-1e-05,1,2.0
3449,0.0,-1e-05,-6e-05,-0.00012,5e-05,-6e-05,0.0,-1e-05,1,2.0
3450,0.0,-1e-05,-2e-05,-0.00012,-0.00034,-1e-05,0.0,-1e-05,1,2.0
3451,0.0,-1e-05,-2e-05,-0.00012,-0.00034,-1e-05,0.0,-1e-05,1,2.0
3452,0.0,-1e-05,-2e-05,-0.00012,-0.00034,-1e-05,0.0,-1e-05,1,2.0
3453,0.0,-1e-05,-2e-05,-0.00012,-0.00034,-1e-05,0.0,-1e-05,1,2.0
3454,0.0,-1e-05,-2e-05,-0.00012,-0.00034,-1e-05,0.0,-1e-05,1,2.0
3455,0.0,-1e-05,-2e-05,-0.00012,-0.00034,-1e-05,0.0,-1e-05,1,2.0
3456,0.0,-1e-05,-2e-05,-0.00012,-0.00034,-1e-05,0.0,-1e-05,1,2.0
3457,0.0,-1e-05,-2e-05,-0.00012,-0.00034,-1e-05,0.0,-1e-05,1,2.0
3458,0.0,-1e-05,-2e-05,-0.00012,-0.00034,-1e-05,0.0,-1e-05,1,2.0
3459,-1e-05,-4e-05,-2e-05,-2e-05,-9e-05,5e-05,0.0,-1e-05,1,2.0
3460,-1e-05,-4e-05,-2e-05,-2e-05,-9e-05,5e-05,0.0,-1e-05,1,2.0
3461,-1e-05,-4e-05,-2e-05,-2e-05,-9e-05,5e-05,0.0,-1e-05,1,2.0
3462,-1e-05,-4e-05,-2e-05,-2e-05,-9e-05,5e-05,0.0,-1e-05,1,2.0
3463,-1e-05,-4e-05,-2e-05,-2e-05,-9e-05,5e-05,0.0,-1e-05,1,2.0
3464,-1e-05,-4e-05,-2e-05,-2e-05,-9e-05,5e-05,0.0,-1e-05,1,2.0
3465,-1e-05,-4e-05,-2e-05,-2e-05,-9e-05,5e-05,0.0,-1e-05,1,2.0
3466,-1e-05,-4e-05,-2e-05,-2e-05,-9e-05,5e-05,0.0,-1e-05,1,2.0
3467,-1e-05,-4e-05,-2e-05,-2e-05,-9e-05,5e-05,0.0,-1e-05,1,2.0
3468,-1e-05,-4e-05,-2e-05,-2e-05,-9e-05,5e-05,0.0,-1e-05,1,2.0
3469,-1e-05,-4e-05,-2e-05,-2e-05,-9e-05,5e-05,0.0,-1e-05,1,2.0
3470,-1e-05,-4e-05,-2e-05,-2e-05,-9e-05,5e-05,0.0,-1e-05,1,2.0
3471,-1e-05,-4e-05,-2e-05,-2e-05,-9e-05,5e-05,0.0,-1e-05,1,2.0
3472,-1e-05,-4e-05,-2e-05,-2e-05,-9e-05,5e-05,0.0,-1e-05,1,2.0
3473,-1e-05,-4e-05,-2e-05,-2e-05,-9e-05,5e-05,0.0,-1e-05,1,2.0
3474,-2e-05,-1e-05,-1e-05,4e-05,0.00021,-2e-05,2e-05,-1e-05,1,2.0
3475,-2e-05,-1e-05,-1e-05,4e-05,0.00021,-2e-05,2e-05,-1e-05,1,2.0
3476,-2e-05,1e-05,0.0001,0.00018,-5e-05,3e-05,1e-05,-7e-05,1,2.0
3477,-2e-05,1e-05,0.0001,0.00018,-5e-05,3e-05,1e-05,-7e-05,1,2.0
3478,-2e-05,1e-05,0.0001,0.00018,-5e-05,3e-05,1e-05,-7e-05,1,2.0
3479,-2e-05,1e-05,0.0001,0.00018,-5e-05,3e-05,1e-05,-7e-05,1,2.0
3480,-2e-05,1e-05,0.0001,0.00018,-5e-05,3e-05,1e-05,-7e-05,1,2.0
3481,-2e-05,1e-05,0.0001,0.00018,-5e-05,3e-05,1e-05,-7e-05,1,2.0
3482,-2e-05,1e-05,0.0001,0.00018,-5e-05,3e-05,1e-05,-7e-05,1,2.0
3483,-2e-05,1e-05,0.0001,0.00018,-5e-05,3e-05,1e-05,-7e-05,1,2.0
3484,-2e-05,1e-05,0.0001,0.00018,-5e-05,3e-05,1e-05,-7e-05,1,2.0
3485,-2e-05,1e-05,0.0001,0.00018,-5e-05,3e-05,1e-05,-7e-05,1,2.0
3486,-2e-05,1e-05,0.0001,0.00018,-5e-05,3e-05,1e-05,-7e-05,1,2.0
3489,-2e-05,1e-05,0.0001,0.00018,-5e-05,3e-05,1e-05,-7e-05,1,2.0
3490,-2e-05,1e-05,0.0001,0.00018,-5e-05,3e-05,1e-05,-7e-05,1,2.0
3491,-2e-05,1e-05,0.0001,0.00018,-5e-05,3e-05,1e-05,-7e-05,1,2.0
3492,-2e-05,1e-05,0.0001,0.00018,-5e-05,3e-05,1e-05,-7e-05,1,2.0
3493,-2e-05,1e-05,0.0001,0.00018,-5e-05,3e-05,1e-05,-7e-05,1,2.0
3494,-2e-05,1e-05,0.0001,0.00018,-5e-05,3e-05,1e-05,-7e-05,1,2.0
3495,-2e-05,1e-05,0.0001,0.00018,-5e-05,3e-05,1e-05,-7e-05,1,2.0
3496,-3e-05,-1e-05,3e-05,2e-05,-6e-05,0.0,-2e-05,0.0,1,2.0
3497,-3e-05,-1e-05,3e-05,2e-05,-6e-05,0.0,-2e-05,0.0,1,2.0
3498,-3e-05,-1e-05,3e-05,2e-05,-6e-05,0.0,-2e-05,0.0,1,2.0
3499,-3e-05,-1e-05,3e-05,2e-05,-6e-05,0.0,-2e-05,0.0,1,2.0
3500,-3e-05,-1e-05,3e-05,2e-05,-6e-05,0.0,-2e-05,0.0,1,2.0
3501,-3e-05,-1e-05,3e-05,2e-05,-6e-05,0.0,-2e-05,0.0,1,2.0
3502,-3e-05,-1e-05,3e-05,2e-05,-6e-05,0.0,-2e-05,0.0,1,2.0
3503,-3e-05,-1e-05,3e-05,2e-05,-6e-05,0.0,-2e-05,0.0,1,2.0
3504,-2e-05,-2e-05,-8e-05,-1e-05,0.00019,-0.00015,3e-05,-1e-05,1,2.0
3505,-2e-05,-2e-05,-8e-05,-1e-05,0.00019,-0.00015,3e-05,-1e-05,1,2.0
3506,-2e-05,-2e-05,-8e-05,-1e-05,0.00019,-0.00015,3e-05,-1e-05,1,2.0
3507,-2e-05,-2e-05,-8e-05,-1e-05,0.00019,-0.00015,3e-05,-1e-05,1,2.0
3508,-2e-05,-2e-05,-8e-05,-1e-05,0.00019,-0.00015,3e-05,-1e-05,1,2.0
3509,-2e-05,-2e-05,-8e-05,-1e-05,0.00019,-0.00015,3e-05,-1e-05,1,2.0
3510,0.0,1e-05,0.0,-7e-05,-5e-05,-5e-05,0.0,2e-05,1,2.0
3511,0.0,1e-05,0.0,-7e-05,-5e-05,-5e-05,0.0,2e-05,1,2.0
3512,0.0,1e-05,0.0,-7e-05,-5e-05,-5e-05,0.0,2e-05,1,2.0
3513,0.0,1e-05,0.0,-7e-05,-5e-05,-5e-05,0.0,2e-05,1,2.0
3514,0.0,1e-05,0.0,-7e-05,-5e-05,-5e-05,0.0,2e-05,1,2.0
3515,0.0,1e-05,0.0,-7e-05,-5e-05,-5e-05,0.0,2e-05,1,2.0
3516,0.0,1e-05,0.0,-7e-05,-5e-05,-5e-05,0.0,2e-05,1,2.0
3517,0.0,1e-05,0.0,-7e-05,-5e-05,-5e-05,0.0,2e-05,1,2.0
3518,0.0,1e-05,0.0,-7e-05,-5e-05,-5e-05,0.0,2e-05,1,2.0
3519,-1e-05,0.0,4e-05,2e-05,-0.00011,1e-05,-1e-05,0.0,1,2.0
3520,-1e-05,0.0,4e-05,2e-05,-0.00011,1e-05,-1e-05,0.0,1,2.0
3521,-1e-05,0.0,4e-05,2e-05,-0.00011,1e-05,-1e-05,0.0,1,2.0
3522,-1e-05,0.0,4e-05,2e-05,-0.00011,1e-05,-1e-05,0.0,1,2.0
3523,-1e-05,0.0,4e-05,2e-05,-0.00011,1e-05,-1e-05,0.0,1,2.0
3524,-1e-05,0.0,4e-05,2e-05,-0.00011,1e-05,-1e-05,0.0,1,2.0
3525,-1e-05,0.0,4e-05,2e-05,-0.00011,1e-05,-1e-05,0.0,1,2.0
3526,-1e-05,0.0,4e-05,2e-05,-0.00011,1e-05,-1e-05,0.0,1,2.0
3527,-1e-05,0.0,4e-05,2e-05,-0.00011,1e-05,-1e-05,0.0,1,2.0
3528,-1e-05,0.0,4e-05,2e-05,-0.00011,1e-05,-1e-05,0.0,1,2.0
3529,-1e-05,0.0,4e-05,2e-05,-0.00011,1e-05,-1e-05,0.0,1,2.0
3530,-1e-05,0.0,4e-05,2e-05,-0.00011,1e-05,-1e-05,0.0,1,2.0
3531,-1e-05,0.0,4e-05,2e-05,-0.00011,1e-05,-1e-05,0.0,1,2.0
3532,-1e-05,0.0,4e-05,2e-05,-0.00011,1e-05,-1e-05,0.0,1,2.0
3533,-1e-05,0.0,4e-05,2e-05,-0.00011,1e-05,-1e-05,0.0,1,2.0
3534,-3e-05,-2e-05,-7e-05,-6e-05,2e-05,1e-05,-1e-05,0.0,1,2.0
3535,0.0,1e-05,8e-05,-2e-05,-0.00021,-3e-05,-2e-05,2e-05,1,2.0
3536,0.0,1e-05,8e-05,-2e-05,-0.00021,-3e-05,-2e-05,2e-05,1,2.0
3538,0.0,1e-05,8e-05,-2e-05,-0.00021,-3e-05,-2e-05,2e-05,1,2.0
3539,0.0,1e-05,8e-05,-2e-05,-0.00021,-3e-05,-2e-05,2e-05,1,2.0
3540,0.0,1e-05,8e-05,-2e-05,-0.00021,-3e-05,-2e-05,2e-05,1,2.0
3541,0.0,1e-05,8e-05,-2e-05,-0.00021,-3e-05,-2e-05,2e-05,1,2.0
3542,0.0,1e-05,8e-05,-2e-05,-0.00021,-3e-05,-2e-05,2e-05,1,2.0
3543,0.0,1e-05,8e-05,-2e-05,-0.00021,-3e-05,-2e-05,2e-05,1,2.0
3544,0.0,1e-05,8e-05,-2e-05,-0.00021,-3e-05,-2e-05,2e-05,1,2.0
3545,0.0,1e-05,8e-05,-2e-05,-0.00021,-3e-05,-2e-05,2e-05,1,2.0
3546,0.0,1e-05,8e-05,-2e-05,-0.00021,-3e-05,-2e-05,2e-05,1,2.0
3547,0.0,1e-05,8e-05,-2e-05,-0.00021,-3e-05,-2e-05,2e-05,1,2.0
3548,0.0,1e-05,8e-05,-2e-05,-0.00021,-3e-05,-2e-05,2e-05,1,2.0
3549,0.0,1e-05,8e-05,-2e-05,-0.00021,-3e-05,-2e-05,2e-05,1,2.0
3550,0.0,1e-05,8e-05,-2e-05,-0.00021,-3e-05,-2e-05,2e-05,1,2.0
3551,0.0,1e-05,8e-05,-2e-05,-0.00021,-3e-05,-2e-05,2e-05,1,2.0
3552,0.0,1e-05,8e-05,-2e-05,-0.00021,-3e-05,-2e-05,2e-05,1,2.0
3553,0.0,1e-05,8e-05,-2e-05,-0.00021,-3e-05,-2e-05,2e-05,1,2.0
3554,0.0,1e-05,8e-05,-2e-05,-0.00021,-3e-05,-2e-05,2e-05,1,2.0
3555,0.0,1e-05,8e-05,-2e-05,-0.00021,-3e-05,-2e-05,2e-05,1,2.0
3556,1e-05,1e-05,2e-05,0.00017,0.00014,2e-05,1e-05,5e-05,1,2.0
3557,1e-05,1e-05,2e-05,0.00017,0.00014,2e-05,1e-05,5e-05,1,2.0
3558,1e-05,-3e-05,-1e-05,-3e-05,0.00017,4e-05,2e-05,-2e-05,1,2.0
3559,1e-05,-3e-05,-1e-05,-3e-05,0.00017,4e-05,2e-05,-2e-05,1,2.0
3560,1e-05,-3e-05,-1e-05,-3e-05,0.00017,4e-05,2e-05,-2e-05,1,2.0
3561,1e-05,-3e-05,-1e-05,-3e-05,0.00017,4e-05,2e-05,-2e-05,1,2.0
3562,1e-05,-3e-05,-1e-05,-3e-05,0.00017,4e-05,2e-05,-2e-05,1,2.0
3563,1e-05,-3e-05,-1e-05,-3e-05,0.00017,4e-05,2e-05,-2e-05,1,2.0
3564,1e-05,-3e-05,-1e-05,-3e-05,0.00017,4e-05,2e-05,-2e-05,1,2.0
3565,1e-05,-3e-05,-1e-05,-3e-05,0.00017,4e-05,2e-05,-2e-05,1,2.0
3566,1e-05,-3e-05,-1e-05,-3e-05,0.00017,4e-05,2e-05,-2e-05,1,2.0
3567,1e-05,-3e-05,-1e-05,-3e-05,0.00017,4e-05,2e-05,-2e-05,1,2.0
3568,1e-05,-3e-05,-1e-05,-3e-05,0.00017,4e-05,2e-05,-2e-05,1,2.0
3569,1e-05,-3e-05,-1e-05,-3e-05,0.00017,4e-05,2e-05,-2e-05,1,2.0
3570,1e-05,-3e-05,-6e-05,-0.00011,-3e-05,6e-05,1e-05,2e-05,1,2.0
3571,1e-05,-3e-05,-6e-05,-0.00011,-3e-05,6e-05,1e-05,2e-05,1,2.0
3572,1e-05,-3e-05,-6e-05,-0.00011,-3e-05,6e-05,1e-05,2e-05,1,2.0
3573,1e-05,-3e-05,-6e-05,-0.00011,-3e-05,6e-05,1e-05,2e-05,1,2.0
3574,1e-05,-3e-05,-6e-05,-0.00011,-3e-05,6e-05,1e-05,2e-05,1,2.0
3575,1e-05,-3e-05,-6e-05,-0.00011,-3e-05,6e-05,1e-05,2e-05,1,2.0
3576,1e-05,-3e-05,-6e-05,-0.00011,-3e-05,6e-05,1e-05,2e-05,1,2.0
3577,1e-05,-3e-05,-6e-05,-0.00011,-3e-05,6e-05,1e-05,2e-05,1,2.0
3578,1e-05,-3e-05,-6e-05,-0.00011,-3e-05,6e-05,1e-05,2e-05,1,2.0
3579,-2e-05,-4e-05,0.0,5e-05,-4e-05,0.0,-1e-05,0.0,1,2.0
3580,-2e-05,-4e-05,0.0,5e-05,-4e-05,0.0,-1e-05,0.0,1,2.0
3581,-2e-05,-4e-05,0.0,5e-05,-4e-05,0.0,-1e-05,0.0,1,2.0
3582,-2e-05,-4e-05,0.0,5e-05,-4e-05,0.0,-1e-05,0.0,1,2.0
3583,-2e-05,-4e-05,0.0,5e-05,-4e-05,0.0,-1e-05,0.0,1,2.0
3584,-2e-05,-4e-05,0.0,5e-05,-4e-05,0.0,-1e-05,0.0,1,2.0
3585,-2e-05,-4e-05,0.0,5e-05,-4e-05,0.0,-1e-05,0.0,1,2.0
3586,-2e-05,-4e-05,0.0,5e-05,-4e-05,0.0,-1e-05,0.0,1,2.0
3588,-2e-05,-4e-05,0.0,5e-05,-4e-05,0.0,-1e-05,0.0,1,2.0
3589,-2e-05,-4e-05,0.0,5e-05,-4e-05,0.0,-1e-05,0.0,1,2.0
3590,-2e-05,-4e-05,0.0,5e-05,-4e-05,0.0,-1e-05,0.0,1,2.0
3591,-2e-05,-4e-05,0.0,5e-05,-4e-05,0.0,-1e-05,0.0,1,2.0
3592,-2e-05,-4e-05,0.0,5e-05,-4e-05,0.0,-1e-05,0.0,1,2.0
3593,-2e-05,-4e-05,0.0,5e-05,-4e-05,0.0,-1e-05,0.0,1,2.0
3594,1e-05,2e-05,4e-05,0.00017,0.00046,8e-05,-2e-05,-2e-05,1,2.0
3595,2e-05,-1e-05,-2e-05,-0.00016,-0.00013,-7e-05,-4e-05,-2e-05,1,2.0
3596,2e-05,-1e-05,-2e-05,-0.00016,-0.00013,-7e-05,-4e-05,-2e-05,1,2.0
3597,2e-05,-1e-05,-2e-05,-0.00016,-0.00013,-7e-05,-4e-05,-2e-05,1,2.0
3598,2e-05,-1e-05,-2e-05,-0.00016,-0.00013,-7e-05,-4e-05,-2e-05,1,2.0
3599,2e-05,-1e-05,-2e-05,-0.00016,-0.00013,-7e-05,-4e-05,-2e-05,1,2.0
3600,2e-05,-1e-05,-2e-05,-0.00016,-0.00013,-7e-05,-4e-05,-2e-05,1,2.0
3601,2e-05,-1e-05,-2e-05,-0.00016,-0.00013,-7e-05,-4e-05,-2e-05,1,2.0
3602,2e-05,-1e-05,-2e-05,-0.00016,-0.00013,-7e-05,-4e-05,-2e-05,1,2.0
3603,2e-05,-1e-05,-2e-05,-0.00016,-0.00013,-7e-05,-4e-05,-2e-05,1,2.0
3604,2e-05,-1e-05,-2e-05,-0.00016,-0.00013,-7e-05,-4e-05,-2e-05,1,2.0
3605,2e-05,-1e-05,-2e-05,-0.00016,-0.00013,-7e-05,-4e-05,-2e-05,1,2.0
3606,2e-05,-1e-05,-2e-05,-0.00016,-0.00013,-7e-05,-4e-05,-2e-05,1,2.0
3607,2e-05,-1e-05,-2e-05,-0.00016,-0.00013,-7e-05,-4e-05,-2e-05,1,2.0
3608,2e-05,-1e-05,-2e-05,-0.00016,-0.00013,-7e-05,-4e-05,-2e-05,1,2.0
3609,2e-05,-1e-05,-2e-05,-0.00016,-0.00013,-7e-05,-4e-05,-2e-05,1,2.0
3610,2e-05,-1e-05,-2e-05,-0.00016,-0.00013,-7e-05,-4e-05,-2e-05,1,2.0
3611,2e-05,-1e-05,-2e-05,-0.00016,-0.00013,-7e-05,-4e-05,-2e-05,1,2.0
3612,2e-05,-1e-05,-2e-05,-0.00016,-0.00013,-7e-05,-4e-05,-2e-05,1,2.0
3613,2e-05,-1e-05,-2e-05,-0.00016,-0.00013,-7e-05,-4e-05,-2e-05,1,2.0
3614,2e-05,-1e-05,-2e-05,-0.00016,-0.00013,-7e-05,-4e-05,-2e-05,1,2.0
3615,2e-05,-1e-05,-2e-05,-0.00016,-0.00013,-7e-05,-4e-05,-2e-05,1,2.0
3616,-2e-05,-2e-05,0.0,-3e-05,-0.00012,-7e-05,-3e-05,-3e-05,1,2.0
3617,-2e-05,-2e-05,0.0,-3e-05,-0.00012,-7e-05,-3e-05,-3e-05,1,2.0
3618,4e-05,-2e-05,-5e-05,9e-05,0.00023,0.00017,2e-05,2e-05,1,2.0
3619,4e-05,-2e-05,-5e-05,9e-05,0.00023,0.00017,2e-05,2e-05,1,2.0
3620,4e-05,-2e-05,-5e-05,9e-05,0.00023,0.00017,2e-05,2e-05,1,2.0
3621,4e-05,-2e-05,-5e-05,9e-05,0.00023,0.00017,2e-05,2e-05,1,2.0
3622,4e-05,-2e-05,-5e-05,9e-05,0.00023,0.00017,2e-05,2e-05,1,2.0
3623,4e-05,-2e-05,-5e-05,9e-05,0.00023,0.00017,2e-05,2e-05,1,2.0
3624,4e-05,-2e-05,-5e-05,9e-05,0.00023,0.00017,2e-05,2e-05,1,2.0
3625,4e-05,-2e-05,-5e-05,9e-05,0.00023,0.00017,2e-05,2e-05,1,2.0
3626,4e-05,-2e-05,-5e-05,9e-05,0.00023,0.00017,2e-05,2e-05,1,2.0
3627,4e-05,-2e-05,-5e-05,9e-05,0.00023,0.00017,2e-05,2e-05,1,2.0
3628,4e-05,-2e-05,-5e-05,9e-05,0.00023,0.00017,2e-05,2e-05,1,2.0
3629,4e-05,-2e-05,-5e-05,9e-05,0.00023,0.00017,2e-05,2e-05,1,2.0
3630,-4e-05,2e-05,-2e-05,-2e-05,-0.0001,-4e-05,2e-05,-3e-05,1,2.0
3631,-4e-05,2e-05,-2e-05,-2e-05,-0.0001,-4e-05,2e-05,-3e-05,1,2.0
3632,-4e-05,2e-05,-2e-05,-2e-05,-0.0001,-4e-05,2e-05,-3e-05,1,2.0
3633,-4e-05,2e-05,-2e-05,-2e-05,-0.0001,-4e-05,2e-05,-3e-05,1,2.0
3634,-4e-05,2e-05,-2e-05,-2e-05,-0.0001,-4e-05,2e-05,-3e-05,1,2.0
3635,-4e-05,2e-05,-2e-05,-2e-05,-0.0001,-4e-05,2e-05,-3e-05,1,2.0
3636,-4e-05,2e-05,-2e-05,-2e-05,-0.0001,-4e-05,2e-05,-3e-05,1,2.0
3638,-4e-05,2e-05,-2e-05,-2e-05,-0.0001,-4e-05,2e-05,-3e-05,1,2.0
3639,-5e-05,0.0,1e-05,0.00015,0.00018,-9e-05,0.0,-1e-05,1,2.0
3640,-5e-05,0.0,1e-05,0.00015,0.00018,-9e-05,0.0,-1e-05,1,2.0
3641,-5e-05,0.0,1e-05,0.00015,0.00018,-9e-05,0.0,-1e-05,1,2.0
3642,-5e-05,0.0,1e-05,0.00015,0.00018,-9e-05,0.0,-1e-05,1,2.0
3643,-5e-05,0.0,1e-05,0.00015,0.00018,-9e-05,0.0,-1e-05,1,2.0
3644,-5e-05,0.0,1e-05,0.00015,0.00018,-9e-05,0.0,-1e-05,1,2.0
3645,-5e-05,0.0,1e-05,0.00015,0.00018,-9e-05,0.0,-1e-05,1,2.0
3646,-5e-05,0.0,1e-05,0.00015,0.00018,-9e-05,0.0,-1e-05,1,2.0
3647,-5e-05,0.0,1e-05,0.00015,0.00018,-9e-05,0.0,-1e-05,1,2.0
3648,-5e-05,0.0,1e-05,0.00015,0.00018,-9e-05,0.0,-1e-05,1,2.0
3649,-5e-05,0.0,1e-05,0.00015,0.00018,-9e-05,0.0,-1e-05,1,2.0
3650,-5e-05,0.0,1e-05,0.00015,0.00018,-9e-05,0.0,-1e-05,1,2.0
3651,-5e-05,0.0,1e-05,0.00015,0.00018,-9e-05,0.0,-1e-05,1,2.0
3652,-5e-05,0.0,1e-05,0.00015,0.00018,-9e-05,0.0,-1e-05,1,2.0
3653,-5e-05,0.0,1e-05,0.00015,0.00018,-9e-05,0.0,-1e-05,1,2.0
3654,0.0,-2e-05,2e-05,-1e-05,-0.00019,-0.0001,-4e-05,-2e-05,1,2.0
3655,-1e-05,-5e-05,-0.0002,-0.00027,-0.00038,-2e-05,-1e-05,0.0,1,2.0
3656,-1e-05,-5e-05,-0.0002,-0.00027,-0.00038,-2e-05,-1e-05,0.0,1,2.0
3657,-1e-05,-5e-05,-0.0002,-0.00027,-0.00038,-2e-05,-1e-05,0.0,1,2.0
3658,-1e-05,-5e-05,-0.0002,-0.00027,-0.00038,-2e-05,-1e-05,0.0,1,2.0
3659,-1e-05,-5e-05,-0.0002,-0.00027,-0.00038,-2e-05,-1e-05,0.0,1,2.0
3660,-1e-05,-5e-05,-0.0002,-0.00027,-0.00038,-2e-05,-1e-05,0.0,1,2.0
3661,-1e-05,-5e-05,-0.0002,-0.00027,-0.00038,-2e-05,-1e-05,0.0,1,2.0
3662,-1e-05,-5e-05,-0.0002,-0.00027,-0.00038,-2e-05,-1e-05,0.0,1,2.0
3663,-1e-05,-5e-05,-0.0002,-0.00027,-0.00038,-2e-05,-1e-05,0.0,1,2.0
3664,-1e-05,-5e-05,-0.0002,-0.00027,-0.00038,-2e-05,-1e-05,0.0,1,2.0
3665,-1e-05,-5e-05,-0.0002,-0.00027,-0.00038,-2e-05,-1e-05,0.0,1,2.0
3666,-1e-05,-5e-05,-0.0002,-0.00027,-0.00038,-2e-05,-1e-05,0.0,1,2.0
3667,-1e-05,-5e-05,-0.0002,-0.00027,-0.00038,-2e-05,-1e-05,0.0,1,2.0
3668,-1e-05,-5e-05,-0.0002,-0.00027,-0.00038,-2e-05,-1e-05,0.0,1,2.0
3669,-1e-05,-5e-05,-0.0002,-0.00027,-0.00038,-2e-05,-1e-05,0.0,1,2.0
3670,-1e-05,-5e-05,-0.0002,-0.00027,-0.00038,-2e-05,-1e-05,0.0,1,2.0
3671,-1e-05,-5e-05,-0.0002,-0.00027,-0.00038,-2e-05,-1e-05,0.0,1,2.0
3672,-1e-05,-5e-05,-0.0002,-0.00027,-0.00038,-2e-05,-1e-05,0.0,1,2.0
3673,-1e-05,-5e-05,-0.0002,-0.00027,-0.00038,-2e-05,-1e-05,0.0,1,2.0
3674,-1e-05,-5e-05,-0.0002,-0.00027,-0.00038,-2e-05,-1e-05,0.0,1,2.0
3675,-1e-05,-5e-05,-0.0002,-0.00027,-0.00038,-2e-05,-1e-05,0.0,1,2.0
3676,-1e-05,-5e-05,-0.0002,-0.00027,-0.00038,-2e-05,-1e-05,0.0,1,2.0
3677,-2e-05,0.0,4e-05,1e-05,-3e-05,3e-05,1e-05,-1e-05,1,2.0
3678,-2e-05,0.0,4e-05,-9e-05,0.00018,-2e-05,1e-05,-3e-05,1,2.0
3679,-2e-05,0.0,4e-05,-9e-05,0.00018,-2e-05,1e-05,-3e-05,1,2.0
3680,-2e-05,0.0,4e-05,-9e-05,0.00018,-2e-05,1e-05,-3e-05,1,2.0
3681,-2e-05,0.0,4e-05,-9e-05,0.00018,-2e-05,1e-05,-3e-05,1,2.0
3682,-2e-05,0.0,4e-05,-9e-05,0.00018,-2e-05,1e-05,-3e-05,1,2.0
3683,-2e-05,0.0,4e-05,-9e-05,0.00018,-2e-05,1e-05,-3e-05,1,2.0
3684,-2e-05,0.0,4e-05,-9e-05,0.00018,-2e-05,1e-05,-3e-05,1,2.0
3685,-2e-05,0.0,4e-05,-9e-05,0.00018,-2e-05,1e-05,-3e-05,1,2.0
3686,-2e-05,0.0,4e-05,-9e-05,0.00018,-2e-05,1e-05,-3e-05,1,2.0
3688,-2e-05,0.0,4e-05,-9e-05,0.00018,-2e-05,1e-05,-3e-05,1,2.0
3689,-2e-05,0.0,4e-05,-9e-05,0.00018,-2e-05,1e-05,-3e-05,1,2.0
3690,1e-05,-1e-05,-6e-05,0.00012,0.00025,2e-05,1e-05,1e-05,1,2.0
3691,1e-05,-1e-05,-6e-05,0.00012,0.00025,2e-05,1e-05,1e-05,1,2.0
3692,1e-05,-1e-05,-6e-05,0.00012,0.00025,2e-05,1e-05,1e-05,1,2.0
3693,1e-05,-1e-05,-6e-05,0.00012,0.00025,2e-05,1e-05,1e-05,1,2.0
3694,1e-05,-1e-05,-6e-05,0.00012,0.00025,2e-05,1e-05,1e-05,1,2.0
3695,1e-05,-1e-05,-6e-05,0.00012,0.00025,2e-05,1e-05,1e-05,1,2.0
3696,1e-05,-1e-05,-6e-05,0.00012,0.00025,2e-05,1e-05,1e-05,1,2.0
3697,1e-05,-1e-05,-6e-05,0.00012,0.00025,2e-05,1e-05,1e-05,1,2.0
3698,1e-05,-1e-05,-6e-05,0.00012,0.00025,2e-05,1e-05,1e-05,1,2.0
3699,-2e-05,3e-05,9e-05,4e-05,0.00016,-4e-05,0.0,1e-05,1,2.0
3700,-2e-05,3e-05,9e-05,4e-05,0.00016,-4e-05,0.0,1e-05,1,2.0
3701,-2e-05,3e-05,9e-05,4e-05,0.00016,-4e-05,0.0,1e-05,1,2.0
3702,-2e-05,3e-05,9e-05,4e-05,0.00016,-4e-05,0.0,1e-05,1,2.0
3703,-2e-05,3e-05,9e-05,4e-05,0.00016,-4e-05,0.0,1e-05,1,2.0
3704,-2e-05,3e-05,9e-05,4e-05,0.00016,-4e-05,0.0,1e-05,1,2.0
3705,-2e-05,3e-05,9e-05,4e-05,0.00016,-4e-05,0.0,1e-05,1,2.0
3706,-2e-05,3e-05,9e-05,4e-05,0.00016,-4e-05,0.0,1e-05,1,2.0
3707,-2e-05,3e-05,9e-05,4e-05,0.00016,-4e-05,0.0,1e-05,1,2.0
3708,-2e-05,3e-05,9e-05,4e-05,0.00016,-4e-05,0.0,1e-05,1,2.0
3709,-2e-05,3e-05,9e-05,4e-05,0.00016,-4e-05,0.0,1e-05,1,2.0
3710,-2e-05,3e-05,9e-05,4e-05,0.00016,-4e-05,0.0,1e-05,1,2.0
3711,-2e-05,3e-05,9e-05,4e-05,0.00016,-4e-05,0.0,1e-05,1,2.0
3712,-2e-05,3e-05,9e-05,4e-05,0.00016,-4e-05,0.0,1e-05,1,2.0
3713,-2e-05,3e-05,9e-05,4e-05,0.00016,-4e-05,0.0,1e-05,1,2.0
3714,-4e-05,-8e-05,-0.0001,-0.0001,0.0,5e-05,-3e-05,-4e-05,1,2.0
3715,-3e-05,-1e-05,1e-05,5e-05,-7e-05,2e-05,-3e-05,0.0,1,2.0
3716,-3e-05,-1e-05,1e-05,5e-05,-7e-05,2e-05,-3e-05,0.0,1,2.0
3717,-3e-05,-1e-05,1e-05,5e-05,-7e-05,2e-05,-3e-05,0.0,1,2.0
3718,-3e-05,-1e-05,1e-05,5e-05,-7e-05,2e-05,-3e-05,0.0,1,2.0
3719,-3e-05,-1e-05,1e-05,5e-05,-7e-05,2e-05,-3e-05,0.0,1,2.0
3720,-3e-05,-1e-05,1e-05,5e-05,-7e-05,2e-05,-3e-05,0.0,1,2.0
3721,-3e-05,-1e-05,1e-05,5e-05,-7e-05,2e-05,-3e-05,0.0,1,2.0
3722,-3e-05,-1e-05,1e-05,5e-05,-7e-05,2e-05,-3e-05,0.0,1,2.0
3723,-3e-05,-1e-05,1e-05,5e-05,-7e-05,2e-05,-3e-05,0.0,1,2.0
3724,-3e-05,-1e-05,1e-05,5e-05,-7e-05,2e-05,-3e-05,0.0,1,2.0
3725,-3e-05,-1e-05,1e-05,5e-05,-7e-05,2e-05,-3e-05,0.0,1,2.0
3726,-3e-05,-1e-05,1e-05,5e-05,-7e-05,2e-05,-3e-05,0.0,1,2.0
3727,-3e-05,-1e-05,1e-05,5e-05,-7e-05,2e-05,-3e-05,0.0,1,2.0
3728,-3e-05,-1e-05,1e-05,5e-05,-7e-05,2e-05,-3e-05,0.0,1,2.0
3729,-3e-05,-1e-05,1e-05,5e-05,-7e-05,2e-05,-3e-05,0.0,1,2.0
3730,-3e-05,-1e-05,1e-05,5e-05,-7e-05,2e-05,-3e-05,0.0,1,2.0
3731,-3e-05,-1e-05,1e-05,5e-05,-7e-05,2e-05,-3e-05,0.0,1,2.0
3732,-3e-05,-1e-05,1e-05,5e-05,-7e-05,2e-05,-3e-05,0.0,1,2.0
3733,-3e-05,-1e-05,1e-05,5e-05,-7e-05,2e-05,-3e-05,0.0,1,2.0
3734,-3e-05,-1e-05,1e-05,5e-05,-7e-05,2e-05,-3e-05,0.0,1,2.0
3735,-3e-05,-1e-05,1e-05,5e-05,-7e-05,2e-05,-3e-05,0.0,1,2.0
3736,3e-05,1e-05,4e-05,-3e-05,0.00021,0.00027,-2e-05,-2e-05,1,2.0
3739,-6e-05,-8e-05,-0.00019,-0.0002,-0.00023,-2e-05,-2e-05,-6e-05,1,2.0
3740,-6e-05,-8e-05,-0.00019,-0.0002,-0.00023,-2e-05,-2e-05,-6e-05,1,2.0
3741,-6e-05,-8e-05,-0.00019,-0.0002,-0.00023,-2e-05,-2e-05,-6e-05,1,2.0
3742,-6e-05,-8e-05,-0.00019,-0.0002,-0.00023,-2e-05,-2e-05,-6e-05,1,2.0
3743,-6e-05,-8e-05,-0.00019,-0.0002,-0.00023,-2e-05,-2e-05,-6e-05,1,2.0
3744,-6e-05,-8e-05,-0.00019,-0.0002,-0.00023,-2e-05,-2e-05,-6e-05,1,2.0
3745,-6e-05,-8e-05,-0.00019,-0.0002,-0.00023,-2e-05,-2e-05,-6e-05,1,2.0
3746,-6e-05,-8e-05,-0.00019,-0.0002,-0.00023,-2e-05,-2e-05,-6e-05,1,2.0
3747,-6e-05,-8e-05,-0.00019,-0.0002,-0.00023,-2e-05,-2e-05,-6e-05,1,2.0
3748,-6e-05,-8e-05,-0.00019,-0.0002,-0.00023,-2e-05,-2e-05,-6e-05,1,2.0
3749,-6e-05,-8e-05,-0.00019,-0.0002,-0.00023,-2e-05,-2e-05,-6e-05,1,2.0
3750,1e-05,0.0,0.0,-9e-05,-0.00026,1e-05,-2e-05,1e-05,1,2.0
3751,1e-05,0.0,0.0,-9e-05,-0.00026,1e-05,-2e-05,1e-05,1,2.0
3752,1e-05,0.0,0.0,-9e-05,-0.00026,1e-05,-2e-05,1e-05,1,2.0
3753,1e-05,0.0,0.0,-9e-05,-0.00026,1e-05,-2e-05,1e-05,1,2.0
3754,1e-05,0.0,0.0,-9e-05,-0.00026,1e-05,-2e-05,1e-05,1,2.0
3755,1e-05,0.0,0.0,-9e-05,-0.00026,1e-05,-2e-05,1e-05,1,2.0
3756,1e-05,0.0,0.0,-9e-05,-0.00026,1e-05,-2e-05,1e-05,1,2.0
3757,1e-05,0.0,0.0,-9e-05,-0.00026,1e-05,-2e-05,1e-05,1,2.0
3758,1e-05,0.0,0.0,-9e-05,-0.00026,1e-05,-2e-05,1e-05,1,2.0
3759,-1e-05,2e-05,1e-05,-5e-05,-6e-05,4e-05,-3e-05,-2e-05,1,2.0
3760,0.0,-3e-05,0.0,3e-05,-1e-05,0.0,1e-05,-2e-05,1,2.0
3761,0.0,-3e-05,0.0,3e-05,-1e-05,0.0,1e-05,-2e-05,1,2.0
3762,0.0,-3e-05,0.0,3e-05,-1e-05,0.0,1e-05,-2e-05,1,2.0
3763,0.0,-3e-05,0.0,3e-05,-1e-05,0.0,1e-05,-2e-05,1,2.0
3764,0.0,-3e-05,0.0,3e-05,-1e-05,0.0,1e-05,-2e-05,1,2.0
3765,0.0,-3e-05,0.0,3e-05,-1e-05,0.0,1e-05,-2e-05,1,2.0
3766,0.0,-3e-05,0.0,3e-05,-1e-05,0.0,1e-05,-2e-05,1,2.0
3767,0.0,-3e-05,0.0,3e-05,-1e-05,0.0,1e-05,-2e-05,1,2.0
3768,0.0,-3e-05,0.0,3e-05,-1e-05,0.0,1e-05,-2e-05,1,2.0
3769,0.0,-3e-05,0.0,3e-05,-1e-05,0.0,1e-05,-2e-05,1,2.0
3770,0.0,-3e-05,0.0,3e-05,-1e-05,0.0,1e-05,-2e-05,1,2.0
3771,0.0,-3e-05,0.0,3e-05,-1e-05,0.0,1e-05,-2e-05,1,2.0
3772,0.0,-3e-05,0.0,3e-05,-1e-05,0.0,1e-05,-2e-05,1,2.0
3773,0.0,-3e-05,0.0,3e-05,-1e-05,0.0,1e-05,-2e-05,1,2.0
3774,-4e-05,-1e-05,4e-05,3e-05,-2e-05,-0.00018,-2e-05,-1e-05,1,2.0
3775,0.0,-2e-05,-8e-05,-8e-05,-0.00015,5e-05,0.0,2e-05,1,2.0
3776,0.0,-1e-05,2e-05,0.0,-3e-05,-3e-05,-2e-05,0.0,1,2.0
3777,0.0,-1e-05,2e-05,0.0,-3e-05,-3e-05,-2e-05,0.0,1,2.0
3778,0.0,-1e-05,2e-05,0.0,-3e-05,-3e-05,-2e-05,0.0,1,2.0
3779,0.0,-1e-05,2e-05,0.0,-3e-05,-3e-05,-2e-05,0.0,1,2.0
3780,0.0,-1e-05,2e-05,0.0,-3e-05,-3e-05,-2e-05,0.0,1,2.0
3781,0.0,-1e-05,2e-05,0.0,-3e-05,-3e-05,-2e-05,0.0,1,2.0
3782,0.0,-1e-05,2e-05,0.0,-3e-05,-3e-05,-2e-05,0.0,1,2.0
3783,0.0,-1e-05,2e-05,0.0,-3e-05,-3e-05,-2e-05,0.0,1,2.0
3784,0.0,-1e-05,2e-05,0.0,-3e-05,-3e-05,-2e-05,0.0,1,2.0
3785,0.0,-1e-05,2e-05,0.0,-3e-05,-3e-05,-2e-05,0.0,1,2.0
3786,0.0,-1e-05,2e-05,0.0,-3e-05,-3e-05,-2e-05,0.0,1,2.0
3788,0.0,-1e-05,2e-05,0.0,-3e-05,-3e-05,-2e-05,0.0,1,2.0
3789,0.0,-1e-05,2e-05,0.0,-3e-05,-3e-05,-2e-05,0.0,1,2.0
3790,0.0,-1e-05,2e-05,0.0,-3e-05,-3e-05,-2e-05,0.0,1,2.0
3791,0.0,-1e-05,2e-05,0.0,-3e-05,-3e-05,-2e-05,0.0,1,2.0
3792,0.0,-1e-05,2e-05,0.0,-3e-05,-3e-05,-2e-05,0.0,1,2.0
3793,0.0,-1e-05,2e-05,0.0,-3e-05,-3e-05,-2e-05,0.0,1,2.0
3794,0.0,-1e-05,2e-05,0.0,-3e-05,-3e-05,-2e-05,0.0,1,2.0
3795,0.0,-1e-05,2e-05,0.0,-3e-05,-3e-05,-2e-05,0.0,1,2.0
3796,2e-05,2e-05,3e-05,0.0,-1e-05,-3e-05,3e-05,1e-05,1,2.0
3797,2e-05,2e-05,3e-05,0.0,-1e-05,-3e-05,3e-05,1e-05,1,2.0
3798,-2e-05,-3e-05,-9e-05,-5e-05,-0.0002,2e-05,-4e-05,-3e-05,1,2.0
3799,-2e-05,-3e-05,-9e-05,-5e-05,-0.0002,2e-05,-4e-05,-3e-05,1,2.0
3800,-2e-05,-3e-05,-9e-05,-5e-05,-0.0002,2e-05,-4e-05,-3e-05,1,2.0
3801,-2e-05,-3e-05,-9e-05,-5e-05,-0.0002,2e-05,-4e-05,-3e-05,1,2.0
3802,-2e-05,-3e-05,-9e-05,-5e-05,-0.0002,2e-05,-4e-05,-3e-05,1,2.0
3803,-2e-05,-3e-05,-9e-05,-5e-05,-0.0002,2e-05,-4e-05,-3e-05,1,2.0
3804,-2e-05,-3e-05,-9e-05,-5e-05,-0.0002,2e-05,-4e-05,-3e-05,1,2.0
3805,-2e-05,-3e-05,-9e-05,-5e-05,-0.0002,2e-05,-4e-05,-3e-05,1,2.0
3806,-2e-05,-3e-05,-9e-05,-5e-05,-0.0002,2e-05,-4e-05,-3e-05,1,2.0
3807,-2e-05,-3e-05,-9e-05,-5e-05,-0.0002,2e-05,-4e-05,-3e-05,1,2.0
3808,-2e-05,-3e-05,-9e-05,-5e-05,-0.0002,2e-05,-4e-05,-3e-05,1,2.0
3809,-2e-05,-3e-05,-9e-05,-5e-05,-0.0002,2e-05,-4e-05,-3e-05,1,2.0
3810,-3e-05,0.0,2e-05,2e-05,7e-05,-8e-05,1e-05,-3e-05,1,2.0
3811,-3e-05,0.0,2e-05,2e-05,7e-05,-8e-05,1e-05,-3e-05,1,2.0
3812,-3e-05,0.0,2e-05,2e-05,7e-05,-8e-05,1e-05,-3e-05,1,2.0
3813,-3e-05,0.0,2e-05,2e-05,7e-05,-8e-05,1e-05,-3e-05,1,2.0
3814,-3e-05,0.0,2e-05,2e-05,7e-05,-8e-05,1e-05,-3e-05,1,2.0
3815,-3e-05,0.0,2e-05,2e-05,7e-05,-8e-05,1e-05,-3e-05,1,2.0
3816,-3e-05,0.0,2e-05,2e-05,7e-05,-8e-05,1e-05,-3e-05,1,2.0
3817,-3e-05,0.0,2e-05,2e-05,7e-05,-8e-05,1e-05,-3e-05,1,2.0
3818,-3e-05,0.0,2e-05,2e-05,7e-05,-8e-05,1e-05,-3e-05,1,2.0
3819,-3e-05,0.0,2e-05,2e-05,7e-05,-8e-05,1e-05,-3e-05,1,2.0
3820,-3e-05,0.0,2e-05,2e-05,7e-05,-8e-05,1e-05,-3e-05,1,2.0
3821,-3e-05,0.0,2e-05,2e-05,7e-05,-8e-05,1e-05,-3e-05,1,2.0
3822,-3e-05,0.0,2e-05,2e-05,7e-05,-8e-05,1e-05,-3e-05,1,2.0
3823,-3e-05,0.0,2e-05,2e-05,7e-05,-8e-05,1e-05,-3e-05,1,2.0
3824,-3e-05,0.0,2e-05,2e-05,7e-05,-8e-05,1e-05,-3e-05,1,2.0
3825,-2e-05,-2e-05,-1e-05,7e-05,0.0,0.00013,-2e-05,-3e-05,1,2.0
3826,-2e-05,-2e-05,-1e-05,7e-05,0.0,0.00013,-2e-05,-3e-05,1,2.0
3827,-2e-05,-2e-05,-1e-05,7e-05,0.0,0.00013,-2e-05,-3e-05,1,2.0
3828,-2e-05,-2e-05,-1e-05,7e-05,0.0,0.00013,-2e-05,-3e-05,1,2.0
3829,-2e-05,-2e-05,-1e-05,7e-05,0.0,0.00013,-2e-05,-3e-05,1,2.0
3830,-2e-05,-2e-05,-1e-05,7e-05,0.0,0.00013,-2e-05,-3e-05,1,2.0
3831,-2e-05,-2e-05,-1e-05,7e-05,0.0,0.00013,-2e-05,-3e-05,1,2.0
3832,-2e-05,-2e-05,-1e-05,7e-05,0.0,0.00013,-2e-05,-3e-05,1,2.0
3833,-2e-05,-2e-05,-1e-05,7e-05,0.0,0.00013,-2e-05,-3e-05,1,2.0
3834,-2e-05,1e-05,-4e-05,0.0,-0.0001,-7e-05,1e-05,3e-05,1,2.0
3835,-4e-05,-1e-05,1e-05,-1e-05,3e-05,-7e-05,-1e-05,-1e-05,1,2.0
3836,-4e-05,-1e-05,1e-05,-1e-05,3e-05,-7e-05,-1e-05,-1e-05,1,2.0
3838,-4e-05,-1e-05,1e-05,-1e-05,3e-05,-7e-05,-1e-05,-1e-05,1,2.0
3839,-4e-05,-1e-05,1e-05,-1e-05,3e-05,-7e-05,-1e-05,-1e-05,1,2.0
3840,-4e-05,-1e-05,1e-05,-1e-05,3e-05,-7e-05,-1e-05,-1e-05,1,2.0
3841,-4e-05,-1e-05,1e-05,-1e-05,3e-05,-7e-05,-1e-05,-1e-05,1,2.0
3842,-4e-05,-1e-05,1e-05,-1e-05,3e-05,-7e-05,-1e-05,-1e-05,1,2.0
3843,-4e-05,-1e-05,1e-05,-1e-05,3e-05,-7e-05,-1e-05,-1e-05,1,2.0
3844,-4e-05,-1e-05,1e-05,-1e-05,3e-05,-7e-05,-1e-05,-1e-05,1,2.0
3845,-4e-05,-1e-05,1e-05,-1e-05,3e-05,-7e-05,-1e-05,-1e-05,1,2.0
3846,-4e-05,-1e-05,1e-05,-1e-05,3e-05,-7e-05,-1e-05,-1e-05,1,2.0
3847,-4e-05,-1e-05,1e-05,-1e-05,3e-05,-7e-05,-1e-05,-1e-05,1,2.0
3848,-4e-05,-1e-05,1e-05,-1e-05,3e-05,-7e-05,-1e-05,-1e-05,1,2.0
3849,-4e-05,-1e-05,1e-05,-1e-05,3e-05,-7e-05,-1e-05,-1e-05,1,2.0
3850,-4e-05,-1e-05,1e-05,-1e-05,3e-05,-7e-05,-1e-05,-1e-05,1,2.0
3851,-4e-05,-1e-05,1e-05,-1e-05,3e-05,-7e-05,-1e-05,-1e-05,1,2.0
3852,-4e-05,-1e-05,1e-05,-1e-05,3e-05,-7e-05,-1e-05,-1e-05,1,2.0
3853,-4e-05,-1e-05,1e-05,-1e-05,3e-05,-7e-05,-1e-05,-1e-05,1,2.0
3854,-4e-05,-1e-05,1e-05,-1e-05,3e-05,-7e-05,-1e-05,-1e-05,1,2.0
3855,-4e-05,-1e-05,1e-05,-1e-05,3e-05,-7e-05,-1e-05,-1e-05,1,2.0
3856,5e-05,-1e-05,4e-05,-8e-05,-0.0001,0.0,-1e-05,2e-05,1,2.0
3857,0.0,0.0,-3e-05,0.00023,0.00029,4e-05,2e-05,2e-05,1,2.0
3858,-3e-05,-1e-05,2e-05,0.0,-0.00043,-8e-05,-1e-05,-1e-05,1,2.0
3859,-3e-05,-1e-05,2e-05,0.0,-0.00043,-8e-05,-1e-05,-1e-05,1,2.0
3860,-3e-05,-1e-05,2e-05,0.0,-0.00043,-8e-05,-1e-05,-1e-05,1,2.0
3861,-3e-05,-1e-05,2e-05,0.0,-0.00043,-8e-05,-1e-05,-1e-05,1,2.0
3862,-3e-05,-1e-05,2e-05,0.0,-0.00043,-8e-05,-1e-05,-1e-05,1,2.0
3863,-3e-05,-1e-05,2e-05,0.0,-0.00043,-8e-05,-1e-05,-1e-05,1,2.0
3864,-3e-05,-1e-05,2e-05,0.0,-0.00043,-8e-05,-1e-05,-1e-05,1,2.0
3865,-3e-05,-1e-05,2e-05,0.0,-0.00043,-8e-05,-1e-05,-1e-05,1,2.0
3866,-3e-05,-1e-05,2e-05,0.0,-0.00043,-8e-05,-1e-05,-1e-05,1,2.0
3867,-3e-05,-1e-05,2e-05,0.0,-0.00043,-8e-05,-1e-05,-1e-05,1,2.0
3868,-3e-05,-1e-05,2e-05,0.0,-0.00043,-8e-05,-1e-05,-1e-05,1,2.0
3869,-3e-05,-1e-05,2e-05,0.0,-0.00043,-8e-05,-1e-05,-1e-05,1,2.0
3870,-3e-05,-1e-05,2e-05,0.0,-0.00043,-8e-05,-1e-05,-1e-05,1,2.0
3871,-3e-05,-1e-05,2e-05,0.0,-0.00043,-8e-05,-1e-05,-1e-05,1,2.0
3872,-3e-05,-1e-05,2e-05,0.0,-0.00043,-8e-05,-1e-05,-1e-05,1,2.0
3873,-3e-05,-1e-05,2e-05,0.0,-0.00043,-8e-05,-1e-05,-1e-05,1,2.0
3874,-3e-05,-1e-05,2e-05,0.0,-0.00043,-8e-05,-1e-05,-1e-05,1,2.0
3875,-3e-05,-1e-05,2e-05,0.0,-0.00043,-8e-05,-1e-05,-1e-05,1,2.0
3876,-3e-05,-1e-05,2e-05,0.0,-0.00043,-8e-05,-1e-05,-1e-05,1,2.0
3877,-3e-05,-1e-05,2e-05,0.0,-0.00043,-8e-05,-1e-05,-1e-05,1,2.0
3878,-3e-05,-6e-05,-0.0001,-9e-05,-6e-05,-8e-05,-3e-05,-4e-05,1,2.0
3879,4e-05,3e-05,4e-05,2e-05,2e-05,-5e-05,3e-05,0.0,1,2.0
3880,4e-05,3e-05,4e-05,2e-05,2e-05,-5e-05,3e-05,0.0,1,2.0
3881,4e-05,3e-05,4e-05,2e-05,2e-05,-5e-05,3e-05,0.0,1,2.0
3882,4e-05,3e-05,4e-05,2e-05,2e-05,-5e-05,3e-05,0.0,1,2.0
3883,4e-05,3e-05,4e-05,2e-05,2e-05,-5e-05,3e-05,0.0,1,2.0
3884,4e-05,3e-05,4e-05,2e-05,2e-05,-5e-05,3e-05,0.0,1,2.0
3885,4e-05,3e-05,4e-05,2e-05,2e-05,-5e-05,3e-05,0.0,1,2.0
3886,4e-05,3e-05,4e-05,2e-05,2e-05,-5e-05,3e-05,0.0,1,2.0
3888,4e-05,3e-05,4e-05,2e-05,2e-05,-5e-05,3e-05,0.0,1,2.0
3889,4e-05,3e-05,4e-05,2e-05,2e-05,-5e-05,3e-05,0.0,1,2.0
3890,4e-05,3e-05,4e-05,2e-05,2e-05,-5e-05,3e-05,0.0,1,2.0
3891,4e-05,3e-05,4e-05,2e-05,2e-05,-5e-05,3e-05,0.0,1,2.0
3892,4e-05,3e-05,4e-05,2e-05,2e-05,-5e-05,3e-05,0.0,1,2.0
3893,-2e-05,-1e-05,0.0,-8e-05,-9e-05,-4e-05,-3e-05,-2e-05,1,2.0
3894,-1e-05,0.0,-1e-05,0.00012,0.00013,-1e-05,1e-05,2e-05,1,2.0
3895,-1e-05,0.0,-1e-05,0.00012,0.00013,-1e-05,1e-05,2e-05,1,2.0
3896,-1e-05,0.0,-1e-05,0.00012,0.00013,-1e-05,1e-05,2e-05,1,2.0
3897,-1e-05,0.0,-1e-05,0.00012,0.00013,-1e-05,1e-05,2e-05,1,2.0
3898,-1e-05,0.0,-1e-05,0.00012,0.00013,-1e-05,1e-05,2e-05,1,2.0
3899,-1e-05,0.0,-1e-05,0.00012,0.00013,-1e-05,1e-05,2e-05,1,2.0
3900,-1e-05,0.0,-1e-05,0.00012,0.00013,-1e-05,1e-05,2e-05,1,2.0
3901,-1e-05,0.0,-1e-05,0.00012,0.00013,-1e-05,1e-05,2e-05,1,2.0
3902,-1e-05,0.0,-1e-05,0.00012,0.00013,-1e-05,1e-05,2e-05,1,2.0
3903,-1e-05,0.0,-1e-05,0.00012,0.00013,-1e-05,1e-05,2e-05,1,2.0
3904,-1e-05,0.0,-1e-05,0.00012,0.00013,-1e-05,1e-05,2e-05,1,2.0
3905,-1e-05,0.0,-1e-05,0.00012,0.00013,-1e-05,1e-05,2e-05,1,2.0
3906,-1e-05,0.0,-1e-05,0.00012,0.00013,-1e-05,1e-05,2e-05,1,2.0
3907,-1e-05,0.0,-1e-05,0.00012,0.00013,-1e-05,1e-05,2e-05,1,2.0
3908,-1e-05,0.0,-1e-05,0.00012,0.00013,-1e-05,1e-05,2e-05,1,2.0
3909,-1e-05,0.0,-1e-05,0.00012,0.00013,-1e-05,1e-05,2e-05,1,2.0
3910,-1e-05,0.0,-1e-05,0.00012,0.00013,-1e-05,1e-05,2e-05,1,2.0
3911,-1e-05,0.0,-1e-05,0.00012,0.00013,-1e-05,1e-05,2e-05,1,2.0
3912,-1e-05,0.0,-1e-05,0.00012,0.00013,-1e-05,1e-05,2e-05,1,2.0
3913,-1e-05,0.0,-1e-05,0.00012,0.00013,-1e-05,1e-05,2e-05,1,2.0
3914,-1e-05,0.0,-1e-05,0.00012,0.00013,-1e-05,1e-05,2e-05,1,2.0
3915,-5e-05,3e-05,-2e-05,-0.00013,-2e-05,0.0,1e-05,-4e-05,1,2.0
3916,2e-05,2e-05,5e-05,-6e-05,5e-05,2e-05,0.0,0.0,1,2.0
3917,2e-05,2e-05,5e-05,-6e-05,5e-05,2e-05,0.0,0.0,1,2.0
3918,2e-05,2e-05,5e-05,-6e-05,5e-05,2e-05,0.0,0.0,1,2.0
3919,2e-05,2e-05,5e-05,-6e-05,5e-05,2e-05,0.0,0.0,1,2.0
3920,2e-05,2e-05,5e-05,-6e-05,5e-05,2e-05,0.0,0.0,1,2.0
3921,2e-05,2e-05,5e-05,-6e-05,5e-05,2e-05,0.0,0.0,1,2.0
3922,2e-05,2e-05,5e-05,-6e-05,5e-05,2e-05,0.0,0.0,1,2.0
3923,2e-05,2e-05,5e-05,-6e-05,5e-05,2e-05,0.0,0.0,1,2.0
3924,2e-05,2e-05,5e-05,-6e-05,5e-05,2e-05,0.0,0.0,1,2.0
3925,2e-05,2e-05,5e-05,-6e-05,5e-05,2e-05,0.0,0.0,1,2.0
3926,2e-05,2e-05,5e-05,-6e-05,5e-05,2e-05,0.0,0.0,1,2.0
3927,2e-05,2e-05,5e-05,-6e-05,5e-05,2e-05,0.0,0.0,1,2.0
3928,2e-05,2e-05,5e-05,-6e-05,5e-05,2e-05,0.0,0.0,1,2.0
3929,2e-05,2e-05,5e-05,-6e-05,5e-05,2e-05,0.0,0.0,1,2.0
3930,2e-05,2e-05,5e-05,-6e-05,5e-05,2e-05,0.0,0.0,1,2.0
3931,2e-05,2e-05,5e-05,-6e-05,5e-05,2e-05,0.0,0.0,1,2.0
3932,2e-05,2e-05,5e-05,-6e-05,5e-05,2e-05,0.0,0.0,1,2.0
3933,2e-05,2e-05,5e-05,-6e-05,5e-05,2e-05,0.0,0.0,1,2.0
3934,2e-05,2e-05,5e-05,-6e-05,5e-05,2e-05,0.0,0.0,1,2.0
3935,2e-05,2e-05,5e-05,-6e-05,5e-05,2e-05,0.0,0.0,1,2.0
3936,2e-05,2e-05,5e-05,-6e-05,5e-05,2e-05,0.0,0.0,1,2.0
3938,0.0,0.0,-3e-05,-6e-05,-9e-05,-1e-05,0.0,-1e-05,1,2.0
3939,-1e-05,-2e-05,-0.00011,-5e-05,-1e-05,0.0,-3e-05,-1e-05,1,2.0
3940,-1e-05,-2e-05,-0.00011,-5e-05,-1e-05,0.0,-3e-05,-1e-05,1,2.0
3941,-1e-05,-2e-05,-0.00011,-5e-05,-1e-05,0.0,-3e-05,-1e-05,1,2.0
3942,-1e-05,-2e-05,-0.00011,-5e-05,-1e-05,0.0,-3e-05,-1e-05,1,2.0
3943,-1e-05,-2e-05,-0.00011,-5e-05,-1e-05,0.0,-3e-05,-1e-05,1,2.0
3944,-1e-05,-2e-05,-0.00011,-5e-05,-1e-05,0.0,-3e-05,-1e-05,1,2.0
3945,-1e-05,-2e-05,-0.00011,-5e-05,-1e-05,0.0,-3e-05,-1e-05,1,2.0
3946,-1e-05,-2e-05,-0.00011,-5e-05,-1e-05,0.0,-3e-05,-1e-05,1,2.0
3947,-1e-05,-2e-05,-0.00011,-5e-05,-1e-05,0.0,-3e-05,-1e-05,1,2.0
3948,-1e-05,-2e-05,-0.00011,-5e-05,-1e-05,0.0,-3e-05,-1e-05,1,2.0
3949,-1e-05,-2e-05,-0.00011,-5e-05,-1e-05,0.0,-3e-05,-1e-05,1,2.0
3950,-1e-05,-2e-05,-0.00011,-5e-05,-1e-05,0.0,-3e-05,-1e-05,1,2.0
3951,-1e-05,-2e-05,-0.00011,-5e-05,-1e-05,0.0,-3e-05,-1e-05,1,2.0
3952,-1e-05,-2e-05,-0.00011,-5e-05,-1e-05,0.0,-3e-05,-1e-05,1,2.0
3953,1e-05,-3e-05,-2e-05,-0.00012,-0.00017,-3e-05,-4e-05,-4e-05,1,2.0
3954,-1e-05,3e-05,2e-05,-5e-05,0.00018,3e-05,-1e-05,-1e-05,1,2.0
3955,-1e-05,3e-05,2e-05,-5e-05,0.00018,3e-05,-1e-05,-1e-05,1,2.0
3956,-1e-05,3e-05,2e-05,-5e-05,0.00018,3e-05,-1e-05,-1e-05,1,2.0
3957,-1e-05,3e-05,2e-05,-5e-05,0.00018,3e-05,-1e-05,-1e-05,1,2.0
3958,-1e-05,3e-05,2e-05,-5e-05,0.00018,3e-05,-1e-05,-1e-05,1,2.0
3959,-1e-05,3e-05,2e-05,-5e-05,0.00018,3e-05,-1e-05,-1e-05,1,2.0
3960,-1e-05,3e-05,2e-05,-5e-05,0.00018,3e-05,-1e-05,-1e-05,1,2.0
3961,-1e-05,3e-05,2e-05,-5e-05,0.00018,3e-05,-1e-05,-1e-05,1,2.0
3962,-1e-05,3e-05,2e-05,-5e-05,0.00018,3e-05,-1e-05,-1e-05,1,2.0
3963,-1e-05,3e-05,2e-05,-5e-05,0.00018,3e-05,-1e-05,-1e-05,1,2.0
3964,-1e-05,3e-05,2e-05,-5e-05,0.00018,3e-05,-1e-05,-1e-05,1,2.0
3965,-1e-05,3e-05,2e-05,-5e-05,0.00018,3e-05,-1e-05,-1e-05,1,2.0
3966,-1e-05,3e-05,2e-05,-5e-05,0.00018,3e-05,-1e-05,-1e-05,1,2.0
3967,-1e-05,3e-05,2e-05,-5e-05,0.00018,3e-05,-1e-05,-1e-05,1,2.0
3968,-1e-05,3e-05,2e-05,-5e-05,0.00018,3e-05,-1e-05,-1e-05,1,2.0
3969,-1e-05,3e-05,2e-05,-5e-05,0.00018,3e-05,-1e-05,-1e-05,1,2.0
3970,-1e-05,3e-05,2e-05,-5e-05,0.00018,3e-05,-1e-05,-1e-05,1,2.0
3971,-1e-05,3e-05,2e-05,-5e-05,0.00018,3e-05,-1e-05,-1e-05,1,2.0
3972,-1e-05,3e-05,2e-05,-5e-05,0.00018,3e-05,-1e-05,-1e-05,1,2.0
3973,-1e-05,3e-05,2e-05,-5e-05,0.00018,3e-05,-1e-05,-1e-05,1,2.0
3974,-1e-05,3e-05,2e-05,-5e-05,0.00018,3e-05,-1e-05,-1e-05,1,2.0
3975,-1e-05,3e-05,2e-05,-5e-05,0.00018,3e-05,-1e-05,-1e-05,1,2.0
3976,0.0,-2e-05,3e-05,4e-05,0.0002,4e-05,0.0,1e-05,1,2.0
3977,0.0,-2e-05,3e-05,4e-05,0.0002,4e-05,0.0,1e-05,1,2.0
3978,0.0,-2e-05,3e-05,4e-05,0.0002,4e-05,0.0,1e-05,1,2.0
3979,0.0,-2e-05,3e-05,4e-05,0.0002,4e-05,0.0,1e-05,1,2.0
3980,0.0,-2e-05,3e-05,4e-05,0.0002,4e-05,0.0,1e-05,1,2.0
3981,0.0,-2e-05,3e-05,4e-05,0.0002,4e-05,0.0,1e-05,1,2.0
3982,0.0,-2e-05,3e-05,4e-05,0.0002,4e-05,0.0,1e-05,1,2.0
3983,0.0,-2e-05,3e-05,4e-05,0.0002,4e-05,0.0,1e-05,1,2.0
3984,0.0,-2e-05,3e-05,4e-05,0.0002,4e-05,0.0,1e-05,1,2.0
3985,0.0,-2e-05,3e-05,4e-05,0.0002,4e-05,0.0,1e-05,1,2.0
3986,0.0,-2e-05,3e-05,4e-05,0.0002,4e-05,0.0,1e-05,1,2.0
3988,0.0,-2e-05,3e-05,4e-05,0.0002,4e-05,0.0,1e-05,1,2.0
3989,0.0,-2e-05,3e-05,4e-05,0.0002,4e-05,0.0,1e-05,1,2.0
3990,0.0,-2e-05,3e-05,4e-05,0.0002,4e-05,0.0,1e-05,1,2.0
3991,0.0,-2e-05,3e-05,4e-05,0.0002,4e-05,0.0,1e-05,1,2.0
3992,0.0,-2e-05,3e-05,4e-05,0.0002,4e-05,0.0,1e-05,1,2.0
3993,0.0,-2e-05,3e-05,4e-05,0.0002,4e-05,0.0,1e-05,1,2.0
3994,0.0,-2e-05,3e-05,4e-05,0.0002,4e-05,0.0,1e-05,1,2.0
3995,0.0,-2e-05,3e-05,4e-05,0.0002,4e-05,0.0,1e-05,1,2.0
3996,0.0,-2e-05,3e-05,4e-05,0.0002,4e-05,0.0,1e-05,1,2.0
3997,0.0,-2e-05,3e-05,4e-05,0.0002,4e-05,0.0,1e-05,1,2.0
3998,-4e-05,-4e-05,-5e-05,-3e-05,-1e-05,-1e-05,0.0,0.0,1,2.0
3999,0.0,2e-05,3e-05,-0.00012,-0.00025,-8e-05,-3e-05,-4e-05,1,2.0
4000,0.0,2e-05,3e-05,-0.00012,-0.00025,-8e-05,-3e-05,-4e-05,1,2.0
4001,0.0,2e-05,3e-05,-0.00012,-0.00025,-8e-05,-3e-05,-4e-05,1,2.0
4002,0.0,2e-05,3e-05,-0.00012,-0.00025,-8e-05,-3e-05,-4e-05,1,2.0
4003,0.0,2e-05,3e-05,-0.00012,-0.00025,-8e-05,-3e-05,-4e-05,1,2.0
4004,0.0,2e-05,3e-05,-0.00012,-0.00025,-8e-05,-3e-05,-4e-05,1,2.0
4005,0.0,2e-05,3e-05,-0.00012,-0.00025,-8e-05,-3e-05,-4e-05,1,2.0
4006,0.0,2e-05,3e-05,-0.00012,-0.00025,-8e-05,-3e-05,-4e-05,1,2.0
4007,0.0,2e-05,3e-05,-0.00012,-0.00025,-8e-05,-3e-05,-4e-05,1,2.0
4008,0.0,2e-05,3e-05,-0.00012,-0.00025,-8e-05,-3e-05,-4e-05,1,2.0
4009,0.0,2e-05,3e-05,-0.00012,-0.00025,-8e-05,-3e-05,-4e-05,1,2.0
4010,0.0,2e-05,3e-05,-0.00012,-0.00025,-8e-05,-3e-05,-4e-05,1,2.0
4011,0.0,2e-05,3e-05,-0.00012,-0.00025,-8e-05,-3e-05,-4e-05,1,2.0
4012,0.0,2e-05,3e-05,-0.00012,-0.00025,-8e-05,-3e-05,-4e-05,1,2.0
4013,3e-05,0.0,-0.00013,-0.00018,-0.0001,-2e-05,2e-05,-1e-05,1,2.0
4014,1e-05,-4e-05,-2e-05,-2e-05,-0.00022,0.00018,-3e-05,-3e-05,1,2.0
4015,1e-05,-4e-05,-2e-05,-2e-05,-0.00022,0.00018,-3e-05,-3e-05,1,2.0
4016,1e-05,-4e-05,-2e-05,-2e-05,-0.00022,0.00018,-3e-05,-3e-05,1,2.0
4017,1e-05,-4e-05,-2e-05,-2e-05,-0.00022,0.00018,-3e-05,-3e-05,1,2.0
4018,1e-05,-4e-05,-2e-05,-2e-05,-0.00022,0.00018,-3e-05,-3e-05,1,2.0
4019,1e-05,-4e-05,-2e-05,-2e-05,-0.00022,0.00018,-3e-05,-3e-05,1,2.0
4020,1e-05,-4e-05,-2e-05,-2e-05,-0.00022,0.00018,-3e-05,-3e-05,1,2.0
4021,1e-05,-4e-05,-2e-05,-2e-05,-0.00022,0.00018,-3e-05,-3e-05,1,2.0
4022,1e-05,-4e-05,-2e-05,-2e-05,-0.00022,0.00018,-3e-05,-3e-05,1,2.0
4023,1e-05,-4e-05,-2e-05,-2e-05,-0.00022,0.00018,-3e-05,-3e-05,1,2.0
4024,1e-05,-4e-05,-2e-05,-2e-05,-0.00022,0.00018,-3e-05,-3e-05,1,2.0
4025,1e-05,-4e-05,-2e-05,-2e-05,-0.00022,0.00018,-3e-05,-3e-05,1,2.0
4026,1e-05,-4e-05,-2e-05,-2e-05,-0.00022,0.00018,-3e-05,-3e-05,1,2.0
4027,1e-05,-4e-05,-2e-05,-2e-05,-0.00022,0.00018,-3e-05,-3e-05,1,2.0
4028,1e-05,-4e-05,-2e-05,-2e-05,-0.00022,0.00018,-3e-05,-3e-05,1,2.0
4029,1e-05,-4e-05,-2e-05,-2e-05,-0.00022,0.00018,-3e-05,-3e-05,1,2.0
4030,1e-05,-4e-05,-2e-05,-2e-05,-0.00022,0.00018,-3e-05,-3e-05,1,2.0
4031,1e-05,-4e-05,-2e-05,-2e-05,-0.00022,0.00018,-3e-05,-3e-05,1,2.0
4032,1e-05,-4e-05,-2e-05,-2e-05,-0.00022,0.00018,-3e-05,-3e-05,1,2.0
4033,1e-05,-4e-05,-2e-05,-2e-05,-0.00022,0.00018,-3e-05,-3e-05,1,2.0
4034,1e-05,-4e-05,-2e-05,-2e-05,-0.00022,0.00018,-3e-05,-3e-05,1,2.0
4035,1e-05,-4e-05,-2e-05,-2e-05,-0.00022,0.00018,-3e-05,-3e-05,1,2.0
4036,3e-05,3e-05,0.0,2e-05,0.00017,5e-05,2e-05,4e-05,1,2.0
4038,1e-05,-1e-05,2e-05,7e-05,2e-05,5e-05,-1e-05,0.0,1,2.0
4039,1e-05,-1e-05,2e-05,7e-05,2e-05,5e-05,-1e-05,0.0,1,2.0
4040,1e-05,-1e-05,2e-05,7e-05,2e-05,5e-05,-1e-05,0.0,1,2.0
4041,1e-05,-1e-05,2e-05,7e-05,2e-05,5e-05,-1e-05,0.0,1,2.0
4042,1e-05,-1e-05,2e-05,7e-05,2e-05,5e-05,-1e-05,0.0,1,2.0
4043,1e-05,-1e-05,2e-05,7e-05,2e-05,5e-05,-1e-05,0.0,1,2.0
4044,1e-05,-1e-05,2e-05,7e-05,2e-05,5e-05,-1e-05,0.0,1,2.0
4045,1e-05,-1e-05,2e-05,7e-05,2e-05,5e-05,-1e-05,0.0,1,2.0
4046,1e-05,-1e-05,2e-05,7e-05,2e-05,5e-05,-1e-05,0.0,1,2.0
4047,1e-05,-1e-05,2e-05,7e-05,2e-05,5e-05,-1e-05,0.0,1,2.0
4048,1e-05,-1e-05,2e-05,7e-05,2e-05,5e-05,-1e-05,0.0,1,2.0
4049,1e-05,-1e-05,2e-05,7e-05,2e-05,5e-05,-1e-05,0.0,1,2.0
4050,1e-05,-1e-05,2e-05,7e-05,2e-05,5e-05,-1e-05,0.0,1,2.0
4051,1e-05,-1e-05,2e-05,7e-05,2e-05,5e-05,-1e-05,0.0,1,2.0
4052,1e-05,-1e-05,2e-05,7e-05,2e-05,5e-05,-1e-05,0.0,1,2.0
4053,1e-05,-1e-05,2e-05,7e-05,2e-05,5e-05,-1e-05,0.0,1,2.0
4054,1e-05,-1e-05,2e-05,7e-05,2e-05,5e-05,-1e-05,0.0,1,2.0
4055,1e-05,-1e-05,2e-05,7e-05,2e-05,5e-05,-1e-05,0.0,1,2.0
4056,1e-05,-1e-05,2e-05,7e-05,2e-05,5e-05,-1e-05,0.0,1,2.0
4057,1e-05,-1e-05,2e-05,7e-05,2e-05,5e-05,-1e-05,0.0,1,2.0
4058,0.0,-3e-05,1e-05,0.00013,0.00021,7e-05,0.0,0.0,1,2.0
4059,-2e-05,1e-05,3e-05,4e-05,0.00011,-0.0001,-1e-05,-1e-05,1,2.0
4060,-2e-05,1e-05,3e-05,4e-05,0.00011,-0.0001,-1e-05,-1e-05,1,2.0
4061,-2e-05,1e-05,3e-05,4e-05,0.00011,-0.0001,-1e-05,-1e-05,1,2.0
4062,-2e-05,1e-05,3e-05,4e-05,0.00011,-0.0001,-1e-05,-1e-05,1,2.0
4063,-2e-05,1e-05,3e-05,4e-05,0.00011,-0.0001,-1e-05,-1e-05,1,2.0
4064,-2e-05,1e-05,3e-05,4e-05,0.00011,-0.0001,-1e-05,-1e-05,1,2.0
4065,-2e-05,1e-05,3e-05,4e-05,0.00011,-0.0001,-1e-05,-1e-05,1,2.0
4066,-2e-05,1e-05,3e-05,4e-05,0.00011,-0.0001,-1e-05,-1e-05,1,2.0
4067,-2e-05,1e-05,3e-05,4e-05,0.00011,-0.0001,-1e-05,-1e-05,1,2.0
4068,-2e-05,1e-05,3e-05,4e-05,0.00011,-0.0001,-1e-05,-1e-05,1,2.0
4069,-2e-05,1e-05,3e-05,4e-05,0.00011,-0.0001,-1e-05,-1e-05,1,2.0
4070,-2e-05,1e-05,3e-05,4e-05,0.00011,-0.0001,-1e-05,-1e-05,1,2.0
4071,-2e-05,1e-05,3e-05,4e-05,0.00011,-0.0001,-1e-05,-1e-05,1,2.0
4072,-2e-05,1e-05,3e-05,4e-05,0.00011,-0.0001,-1e-05,-1e-05,1,2.0
4073,-9e-05,-3e-05,-5e-05,0.0,-5e-05,-3e-05,-5e-05,-3e-05,1,2.0
4074,-1e-05,4e-05,3e-05,4e-05,3e-05,-5e-05,2e-05,2e-05,1,2.0
4075,-1e-05,4e-05,3e-05,4e-05,3e-05,-5e-05,2e-05,2e-05,1,2.0
4076,-1e-05,4e-05,3e-05,4e-05,3e-05,-5e-05,2e-05,2e-05,1,2.0
4077,-1e-05,4e-05,3e-05,4e-05,3e-05,-5e-05,2e-05,2e-05,1,2.0
4078,-1e-05,4e-05,3e-05,4e-05,3e-05,-5e-05,2e-05,2e-05,1,2.0
4079,-1e-05,4e-05,3e-05,4e-05,3e-05,-5e-05,2e-05,2e-05,1,2.0
4080,-1e-05,4e-05,3e-05,4e-05,3e-05,-5e-05,2e-05,2e-05,1,2.0
4081,-1e-05,4e-05,3e-05,4e-05,3e-05,-5e-05,2e-05,2e-05,1,2.0
4082,-1e-05,4e-05,3e-05,4e-05,3e-05,-5e-05,2e-05,2e-05,1,2.0
4083,-1e-05,4e-05,3e-05,4e-05,3e-05,-5e-05,2e-05,2e-05,1,2.0
4084,-1e-05,4e-05,3e-05,4e-05,3e-05,-5e-05,2e-05,2e-05,1,2.0
4085,-1e-05,4e-05,3e-05,4e-05,3e-05,-5e-05,2e-05,2e-05,1,2.0
4086,-1e-05,4e-05,3e-05,4e-05,3e-05,-5e-05,2e-05,2e-05,1,2.0
4088,-1e-05,4e-05,3e-05,4e-05,3e-05,-5e-05,2e-05,2e-05,1,2.0
4089,-1e-05,4e-05,3e-05,4e-05,3e-05,-5e-05,2e-05,2e-05,1,2.0
4090,-1e-05,4e-05,3e-05,4e-05,3e-05,-5e-05,2e-05,2e-05,1,2.0
4091,-1e-05,4e-05,3e-05,4e-05,3e-05,-5e-05,2e-05,2e-05,1,2.0
4092,-1e-05,4e-05,3e-05,4e-05,3e-05,-5e-05,2e-05,2e-05,1,2.0
4093,-1e-05,4e-05,3e-05,4e-05,3e-05,-5e-05,2e-05,2e-05,1,2.0
4094,-1e-05,4e-05,3e-05,4e-05,3e-05,-5e-05,2e-05,2e-05,1,2.0
4095,-1e-05,4e-05,3e-05,4e-05,3e-05,-5e-05,2e-05,2e-05,1,2.0
4096,0.0,-3e-05,-7e-05,-3e-05,1e-05,-5e-05,-2e-05,3e-05,1,2.0
4097,0.0,-3e-05,-7e-05,-3e-05,1e-05,-5e-05,-2e-05,3e-05,1,2.0
4098,0.0,-3e-05,-7e-05,-3e-05,1e-05,-5e-05,-2e-05,3e-05,1,2.0
4099,0.0,-3e-05,-7e-05,-3e-05,1e-05,-5e-05,-2e-05,3e-05,1,2.0
4100,0.0,-3e-05,-7e-05,-3e-05,1e-05,-5e-05,-2e-05,3e-05,1,2.0
4101,0.0,-3e-05,-7e-05,-3e-05,1e-05,-5e-05,-2e-05,3e-05,1,2.0
4102,0.0,-3e-05,-7e-05,-3e-05,1e-05,-5e-05,-2e-05,3e-05,1,2.0
4103,0.0,-3e-05,-7e-05,-3e-05,1e-05,-5e-05,-2e-05,3e-05,1,2.0
4104,0.0,-3e-05,-7e-05,-3e-05,1e-05,-5e-05,-2e-05,3e-05,1,2.0
4105,0.0,-3e-05,-7e-05,-3e-05,1e-05,-5e-05,-2e-05,3e-05,1,2.0
4106,0.0,-3e-05,-7e-05,-3e-05,1e-05,-5e-05,-2e-05,3e-05,1,2.0
4107,0.0,-3e-05,-7e-05,-3e-05,1e-05,-5e-05,-2e-05,3e-05,1,2.0
4108,0.0,-3e-05,-7e-05,-3e-05,1e-05,-5e-05,-2e-05,3e-05,1,2.0
