time,channel1,channel2,channel3,channel4,channel5,channel6,channel7,channel8,class,label
1166,1e-05,0.0,4e-05,2e-05,-6e-05,7e-05,0.0,1e-05,1,20.0
1167,1e-05,0.0,4e-05,2e-05,-6e-05,7e-05,0.0,1e-05,1,20.0
1168,1e-05,0.0,4e-05,2e-05,-6e-05,7e-05,0.0,1e-05,1,20.0
1169,1e-05,0.0,4e-05,2e-05,-6e-05,7e-05,0.0,1e-05,1,20.0
1170,1e-05,0.0,4e-05,2e-05,-6e-05,7e-05,0.0,1e-05,1,20.0
1171,1e-05,0.0,4e-05,2e-05,-6e-05,7e-05,0.0,1e-05,1,20.0
1172,1e-05,0.0,4e-05,2e-05,-6e-05,7e-05,0.0,1e-05,1,20.0
1173,1e-05,0.0,4e-05,2e-05,-6e-05,7e-05,0.0,1e-05,1,20.0
1174,1e-05,0.0,4e-05,2e-05,-6e-05,7e-05,0.0,1e-05,1,20.0
1175,-4e-05,-1e-05,-2e-05,0.0,-8e-05,9e-05,0.0,-2e-05,1,20.0
1176,-4e-05,-1e-05,-2e-05,0.0,-8e-05,9e-05,0.0,-2e-05,1,20.0
1177,-4e-05,-1e-05,-2e-05,0.0,-8e-05,9e-05,0.0,-2e-05,1,20.0
1178,-4e-05,-1e-05,-2e-05,0.0,-8e-05,9e-05,0.0,-2e-05,1,20.0
1179,-4e-05,-1e-05,-2e-05,0.0,-8e-05,9e-05,0.0,-2e-05,1,20.0
1180,-4e-05,-1e-05,-2e-05,0.0,-8e-05,9e-05,0.0,-2e-05,1,20.0
1181,-4e-05,-2e-05,1e-05,-7e-05,-0.00011,1e-05,-2e-05,-1e-05,1,20.0
1182,3e-05,1e-05,3e-05,6e-05,4e-05,0.0,1e-05,-3e-05,1,20.0
1183,3e-05,1e-05,3e-05,6e-05,4e-05,0.0,1e-05,-3e-05,1,20.0
1184,3e-05,1e-05,3e-05,6e-05,4e-05,0.0,1e-05,-3e-05,1,20.0
1185,3e-05,1e-05,3e-05,6e-05,4e-05,0.0,1e-05,-3e-05,1,20.0
1186,3e-05,1e-05,3e-05,6e-05,4e-05,0.0,1e-05,-3e-05,1,20.0
1188,3e-05,1e-05,3e-05,6e-05,4e-05,0.0,1e-05,-3e-05,1,20.0
1189,3e-05,1e-05,3e-05,6e-05,4e-05,0.0,1e-05,-3e-05,1,20.0
1190,3e-05,1e-05,3e-05,6e-05,4e-05,0.0,1e-05,-3e-05,1,20.0
1191,3e-05,1e-05,3e-05,6e-05,4e-05,0.0,1e-05,-3e-05,1,20.0
1192,3e-05,1e-05,3e-05,6e-05,4e-05,0.0,1e-05,-3e-05,1,20.0
1193,3e-05,1e-05,3e-05,6e-05,4e-05,0.0,1e-05,-3e-05,1,20.0
1194,3e-05,1e-05,3e-05,6e-05,4e-05,0.0,1e-05,-3e-05,1,20.0
1195,3e-05,1e-05,3e-05,6e-05,4e-05,0.0,1e-05,-3e-05,1,20.0
1196,3e-05,1e-05,3e-05,6e-05,4e-05,0.0,1e-05,-3e-05,1,20.0
1197,3e-05,1e-05,3e-05,6e-05,4e-05,0.0,1e-05,-3e-05,1,20.0
1198,1e-05,3e-05,-1e-05,2e-05,0.00014,0.00013,-6e-05,-1e-05,1,20.0
1199,1e-05,0.0,1e-05,-4e-05,-0.00013,-5e-05,-2e-05,1e-05,1,20.0
1200,3e-05,0.0,1e-05,2e-05,1e-05,2e-05,6e-05,0.0,1,20.0
1201,3e-05,0.0,1e-05,2e-05,1e-05,2e-05,6e-05,0.0,1,20.0
1202,3e-05,0.0,1e-05,2e-05,1e-05,2e-05,6e-05,0.0,1,20.0
1203,3e-05,0.0,1e-05,2e-05,1e-05,2e-05,6e-05,0.0,1,20.0
1204,3e-05,0.0,1e-05,2e-05,1e-05,2e-05,6e-05,0.0,1,20.0
1205,3e-05,0.0,1e-05,2e-05,1e-05,2e-05,6e-05,0.0,1,20.0
1206,3e-05,0.0,1e-05,2e-05,1e-05,2e-05,6e-05,0.0,1,20.0
1207,3e-05,0.0,1e-05,2e-05,1e-05,2e-05,6e-05,0.0,1,20.0
1208,3e-05,0.0,1e-05,2e-05,1e-05,2e-05,6e-05,0.0,1,20.0
1209,3e-05,0.0,1e-05,2e-05,1e-05,2e-05,6e-05,0.0,1,20.0
1210,3e-05,0.0,1e-05,2e-05,1e-05,2e-05,6e-05,0.0,1,20.0
1211,3e-05,0.0,1e-05,2e-05,1e-05,2e-05,6e-05,0.0,1,20.0
1212,3e-05,0.0,1e-05,2e-05,1e-05,2e-05,6e-05,0.0,1,20.0
1213,3e-05,0.0,1e-05,2e-05,1e-05,2e-05,6e-05,0.0,1,20.0
1214,3e-05,0.0,1e-05,2e-05,1e-05,2e-05,6e-05,0.0,1,20.0
1215,3e-05,0.0,1e-05,2e-05,1e-05,2e-05,6e-05,0.0,1,20.0
1216,3e-05,0.0,1e-05,2e-05,1e-05,2e-05,6e-05,0.0,1,20.0
1217,3e-05,0.0,1e-05,2e-05,1e-05,2e-05,6e-05,0.0,1,20.0
1218,3e-05,0.0,1e-05,2e-05,1e-05,2e-05,6e-05,0.0,1,20.0
1219,3e-05,0.0,1e-05,2e-05,1e-05,2e-05,6e-05,0.0,1,20.0
1220,2e-05,0.0,3e-05,3e-05,2e-05,8e-05,-3e-05,-1e-05,1,20.0
1221,2e-05,0.0,3e-05,3e-05,2e-05,8e-05,-3e-05,-1e-05,1,20.0
1222,-7e-05,-4e-05,-0.00011,-0.0001,-0.00015,-3e-05,-4e-05,-2e-05,1,20.0
1223,-7e-05,-4e-05,-0.00011,-0.0001,-0.00015,-3e-05,-4e-05,-2e-05,1,20.0
1224,-7e-05,-4e-05,-0.00011,-0.0001,-0.00015,-3e-05,-4e-05,-2e-05,1,20.0
1225,-7e-05,-4e-05,-0.00011,-0.0001,-0.00015,-3e-05,-4e-05,-2e-05,1,20.0
1226,-7e-05,-4e-05,-0.00011,-0.0001,-0.00015,-3e-05,-4e-05,-2e-05,1,20.0
1227,-7e-05,-4e-05,-0.00011,-0.0001,-0.00015,-3e-05,-4e-05,-2e-05,1,20.0
1228,-7e-05,-4e-05,-0.00011,-0.0001,-0.00015,-3e-05,-4e-05,-2e-05,1,20.0
1229,-7e-05,-4e-05,-0.00011,-0.0001,-0.00015,-3e-05,-4e-05,-2e-05,1,20.0
1230,-7e-05,-4e-05,-0.00011,-0.0001,-0.00015,-3e-05,-4e-05,-2e-05,1,20.0
1231,-7e-05,-4e-05,-0.00011,-0.0001,-0.00015,-3e-05,-4e-05,-2e-05,1,20.0
1232,-7e-05,-4e-05,-0.00011,-0.0001,-0.00015,-3e-05,-4e-05,-2e-05,1,20.0
1233,-7e-05,-4e-05,-0.00011,-0.0001,-0.00015,-3e-05,-4e-05,-2e-05,1,20.0
1234,0.0,0.0,9e-05,0.00019,0.0005,3e-05,2e-05,1e-05,1,20.0
1235,0.0,0.0,9e-05,0.00019,0.0005,3e-05,2e-05,1e-05,1,20.0
1237,0.0,0.0,9e-05,0.00019,0.0005,3e-05,2e-05,1e-05,1,20.0
1240,0.0,0.0,9e-05,0.00019,0.0005,3e-05,2e-05,1e-05,1,20.0
1241,0.0,0.0,9e-05,0.00019,0.0005,3e-05,2e-05,1e-05,1,20.0
1242,0.0,0.0,9e-05,0.00019,0.0005,3e-05,2e-05,1e-05,1,20.0
1243,0.0,0.0,9e-05,0.00019,0.0005,3e-05,2e-05,1e-05,1,20.0
1244,-2e-05,2e-05,5e-05,-1e-05,2e-05,-7e-05,6e-05,-1e-05,1,20.0
1245,-2e-05,2e-05,5e-05,-1e-05,2e-05,-7e-05,6e-05,-1e-05,1,20.0
1246,-2e-05,2e-05,5e-05,-1e-05,2e-05,-7e-05,6e-05,-1e-05,1,20.0
1247,-2e-05,2e-05,5e-05,-1e-05,2e-05,-7e-05,6e-05,-1e-05,1,20.0
1248,-2e-05,2e-05,5e-05,-1e-05,2e-05,-7e-05,6e-05,-1e-05,1,20.0
1249,-2e-05,2e-05,5e-05,-1e-05,2e-05,-7e-05,6e-05,-1e-05,1,20.0
1250,-2e-05,2e-05,5e-05,-1e-05,2e-05,-7e-05,6e-05,-1e-05,1,20.0
1251,-2e-05,2e-05,5e-05,-1e-05,2e-05,-7e-05,6e-05,-1e-05,1,20.0
1252,-2e-05,2e-05,5e-05,-1e-05,2e-05,-7e-05,6e-05,-1e-05,1,20.0
1253,-2e-05,2e-05,5e-05,-1e-05,2e-05,-7e-05,6e-05,-1e-05,1,20.0
1254,-2e-05,2e-05,5e-05,-1e-05,2e-05,-7e-05,6e-05,-1e-05,1,20.0
1255,-2e-05,2e-05,5e-05,-1e-05,2e-05,-7e-05,6e-05,-1e-05,1,20.0
1256,-2e-05,2e-05,5e-05,-1e-05,2e-05,-7e-05,6e-05,-1e-05,1,20.0
1257,-2e-05,2e-05,5e-05,-1e-05,2e-05,-7e-05,6e-05,-1e-05,1,20.0
1258,-1e-05,-3e-05,-6e-05,-0.0001,-0.0002,-5e-05,-1e-05,-3e-05,1,20.0
1259,-1e-05,-3e-05,-6e-05,-0.0001,-0.0002,-5e-05,-1e-05,-3e-05,1,20.0
1260,-3e-05,-4e-05,-0.0001,2e-05,5e-05,1e-05,-6e-05,0.0,1,20.0
1261,-3e-05,-4e-05,-0.0001,2e-05,5e-05,1e-05,-6e-05,0.0,1,20.0
1262,-3e-05,-4e-05,-0.0001,2e-05,5e-05,1e-05,-6e-05,0.0,1,20.0
1263,-3e-05,-4e-05,-0.0001,2e-05,5e-05,1e-05,-6e-05,0.0,1,20.0
1264,-3e-05,-4e-05,-0.0001,2e-05,5e-05,1e-05,-6e-05,0.0,1,20.0
1265,-3e-05,-4e-05,-0.0001,2e-05,5e-05,1e-05,-6e-05,0.0,1,20.0
1266,-3e-05,-4e-05,-0.0001,2e-05,5e-05,1e-05,-6e-05,0.0,1,20.0
1267,-3e-05,-4e-05,-0.0001,2e-05,5e-05,1e-05,-6e-05,0.0,1,20.0
1268,-3e-05,-4e-05,-0.0001,2e-05,5e-05,1e-05,-6e-05,0.0,1,20.0
1269,-3e-05,-4e-05,-0.0001,2e-05,5e-05,1e-05,-6e-05,0.0,1,20.0
1270,-3e-05,-4e-05,-0.0001,2e-05,5e-05,1e-05,-6e-05,0.0,1,20.0
1271,-3e-05,-4e-05,-0.0001,2e-05,5e-05,1e-05,-6e-05,0.0,1,20.0
1272,-3e-05,-4e-05,-0.0001,2e-05,5e-05,1e-05,-6e-05,0.0,1,20.0
1273,-3e-05,-4e-05,-0.0001,2e-05,5e-05,1e-05,-6e-05,0.0,1,20.0
1274,-3e-05,-4e-05,-0.0001,2e-05,5e-05,1e-05,-6e-05,0.0,1,20.0
1275,-3e-05,-4e-05,-0.0001,2e-05,5e-05,1e-05,-6e-05,0.0,1,20.0
1276,-3e-05,-4e-05,-0.0001,2e-05,5e-05,1e-05,-6e-05,0.0,1,20.0
1277,-3e-05,-4e-05,-0.0001,2e-05,5e-05,1e-05,-6e-05,0.0,1,20.0
1278,-3e-05,-4e-05,-0.0001,2e-05,5e-05,1e-05,-6e-05,0.0,1,20.0
1279,-3e-05,-4e-05,-0.0001,2e-05,5e-05,1e-05,-6e-05,0.0,1,20.0
1280,3e-05,0.0,-3e-05,-9e-05,-5e-05,-2e-05,1e-05,-3e-05,1,20.0
1281,2e-05,4e-05,0.0001,4e-05,8e-05,2e-05,1e-05,0.0,1,20.0
1282,2e-05,4e-05,0.0001,4e-05,8e-05,2e-05,1e-05,0.0,1,20.0
1283,2e-05,4e-05,0.0001,4e-05,8e-05,2e-05,1e-05,0.0,1,20.0
1284,2e-05,4e-05,0.0001,4e-05,8e-05,2e-05,1e-05,0.0,1,20.0
1285,2e-05,4e-05,0.0001,4e-05,8e-05,2e-05,1e-05,0.0,1,20.0
1287,-1e-05,-3e-05,-4e-05,-8e-05,-6e-05,-4e-05,-1e-05,-2e-05,1,20.0
1289,-1e-05,-3e-05,-4e-05,-8e-05,-6e-05,-4e-05,-1e-05,-2e-05,1,20.0
1290,-1e-05,-3e-05,-4e-05,-8e-05,-6e-05,-4e-05,-1e-05,-2e-05,1,20.0
1291,-1e-05,-3e-05,-4e-05,-8e-05,-6e-05,-4e-05,-1e-05,-2e-05,1,20.0
1292,-1e-05,-3e-05,-4e-05,-8e-05,-6e-05,-4e-05,-1e-05,-2e-05,1,20.0
1293,-1e-05,-3e-05,-4e-05,-8e-05,-6e-05,-4e-05,-1e-05,-2e-05,1,20.0
1294,-1e-05,-4e-05,-0.00012,-0.00014,-0.00022,-5e-05,-3e-05,-3e-05,1,20.0
1295,-2e-05,0.0,2e-05,1e-05,0.0002,0.00068,-7e-05,2e-05,1,20.0
1296,-2e-05,0.0,2e-05,1e-05,0.0002,0.00068,-7e-05,2e-05,1,20.0
1297,-2e-05,0.0,2e-05,1e-05,0.0002,0.00068,-7e-05,2e-05,1,20.0
1298,-2e-05,0.0,2e-05,1e-05,0.0002,0.00068,-7e-05,2e-05,1,20.0
1299,-2e-05,0.0,2e-05,1e-05,0.0002,0.00068,-7e-05,2e-05,1,20.0
1300,-2e-05,0.0,2e-05,1e-05,0.0002,0.00068,-7e-05,2e-05,1,20.0
1301,-2e-05,0.0,2e-05,1e-05,0.0002,0.00068,-7e-05,2e-05,1,20.0
1302,-2e-05,0.0,2e-05,1e-05,0.0002,0.00068,-7e-05,2e-05,1,20.0
1303,0.0,3e-05,6e-05,3e-05,-6e-05,-0.0001,-4e-05,-2e-05,1,20.0
1304,0.0,3e-05,6e-05,3e-05,-6e-05,-0.0001,-4e-05,-2e-05,1,20.0
1305,0.0,3e-05,6e-05,3e-05,-6e-05,-0.0001,-4e-05,-2e-05,1,20.0
1306,0.0,3e-05,6e-05,3e-05,-6e-05,-0.0001,-4e-05,-2e-05,1,20.0
1307,0.0,3e-05,6e-05,3e-05,-6e-05,-0.0001,-4e-05,-2e-05,1,20.0
1308,0.0,3e-05,6e-05,3e-05,-6e-05,-0.0001,-4e-05,-2e-05,1,20.0
1309,0.0,3e-05,6e-05,3e-05,-6e-05,-0.0001,-4e-05,-2e-05,1,20.0
1311,0.0,3e-05,6e-05,3e-05,-6e-05,-0.0001,-4e-05,-2e-05,1,20.0
1312,0.0,3e-05,6e-05,3e-05,-6e-05,-0.0001,-4e-05,-2e-05,1,20.0
1313,0.0,3e-05,6e-05,3e-05,-6e-05,-0.0001,-4e-05,-2e-05,1,20.0
1314,0.0,3e-05,6e-05,3e-05,-6e-05,-0.0001,-4e-05,-2e-05,1,20.0
1315,0.0,3e-05,6e-05,3e-05,-6e-05,-0.0001,-4e-05,-2e-05,1,20.0
1316,0.0,3e-05,6e-05,3e-05,-6e-05,-0.0001,-4e-05,-2e-05,1,20.0
1317,0.0,3e-05,6e-05,3e-05,-6e-05,-0.0001,-4e-05,-2e-05,1,20.0
1318,1e-05,-5e-05,-9e-05,-6e-05,-0.00015,1e-05,-1e-05,2e-05,1,20.0
1319,1e-05,-5e-05,-9e-05,-6e-05,-0.00015,1e-05,-1e-05,2e-05,1,20.0
1320,2e-05,-3e-05,-1e-05,-3e-05,-2e-05,5e-05,-2e-05,-2e-05,1,20.0
1321,2e-05,-3e-05,-1e-05,-3e-05,-2e-05,5e-05,-2e-05,-2e-05,1,20.0
1322,2e-05,-3e-05,-1e-05,-3e-05,-2e-05,5e-05,-2e-05,-2e-05,1,20.0
1323,2e-05,-3e-05,-1e-05,-3e-05,-2e-05,5e-05,-2e-05,-2e-05,1,20.0
1324,2e-05,-3e-05,-1e-05,-3e-05,-2e-05,5e-05,-2e-05,-2e-05,1,20.0
1325,2e-05,-3e-05,-1e-05,-3e-05,-2e-05,5e-05,-2e-05,-2e-05,1,20.0
1326,2e-05,-3e-05,-1e-05,-3e-05,-2e-05,5e-05,-2e-05,-2e-05,1,20.0
1327,2e-05,-3e-05,-1e-05,-3e-05,-2e-05,5e-05,-2e-05,-2e-05,1,20.0
1328,2e-05,-3e-05,-1e-05,-3e-05,-2e-05,5e-05,-2e-05,-2e-05,1,20.0
1329,2e-05,-3e-05,-1e-05,-3e-05,-2e-05,5e-05,-2e-05,-2e-05,1,20.0
1330,2e-05,-3e-05,-1e-05,-3e-05,-2e-05,5e-05,-2e-05,-2e-05,1,20.0
1331,2e-05,-3e-05,-1e-05,-3e-05,-2e-05,5e-05,-2e-05,-2e-05,1,20.0
1332,2e-05,-3e-05,-1e-05,-3e-05,-2e-05,5e-05,-2e-05,-2e-05,1,20.0
1333,2e-05,-3e-05,-1e-05,-3e-05,-2e-05,5e-05,-2e-05,-2e-05,1,20.0
1334,2e-05,-3e-05,-1e-05,-3e-05,-2e-05,5e-05,-2e-05,-2e-05,1,20.0
1335,2e-05,-3e-05,-1e-05,-3e-05,-2e-05,5e-05,-2e-05,-2e-05,1,20.0
1336,2e-05,-3e-05,-1e-05,-3e-05,-2e-05,5e-05,-2e-05,-2e-05,1,20.0
1338,2e-05,-3e-05,-1e-05,-3e-05,-2e-05,5e-05,-2e-05,-2e-05,1,20.0
1339,2e-05,-3e-05,-1e-05,-3e-05,-2e-05,5e-05,-2e-05,-2e-05,1,20.0
1340,2e-05,-3e-05,-1e-05,-3e-05,-2e-05,5e-05,-2e-05,-2e-05,1,20.0
1341,-5e-05,-6e-05,-0.0001,-7e-05,-0.00019,-0.00023,8e-05,1e-05,1,20.0
1342,-2e-05,-1e-05,-7e-05,-1e-05,-6e-05,-3e-05,3e-05,1e-05,1,20.0
1343,-1e-05,-1e-05,-6e-05,-9e-05,-1e-05,-8e-05,0.0,-2e-05,1,20.0
1344,-1e-05,-1e-05,-6e-05,-9e-05,-1e-05,-8e-05,0.0,-2e-05,1,20.0
1345,-1e-05,-1e-05,-6e-05,-9e-05,-1e-05,-8e-05,0.0,-2e-05,1,20.0
1346,-1e-05,-1e-05,-6e-05,-9e-05,-1e-05,-8e-05,0.0,-2e-05,1,20.0
1347,-1e-05,-1e-05,-6e-05,-9e-05,-1e-05,-8e-05,0.0,-2e-05,1,20.0
1348,-1e-05,-1e-05,-6e-05,-9e-05,-1e-05,-8e-05,0.0,-2e-05,1,20.0
1349,-1e-05,-1e-05,-6e-05,-9e-05,-1e-05,-8e-05,0.0,-2e-05,1,20.0
1350,-1e-05,-1e-05,-6e-05,-9e-05,-1e-05,-8e-05,0.0,-2e-05,1,20.0
1351,-1e-05,-1e-05,-6e-05,-9e-05,-1e-05,-8e-05,0.0,-2e-05,1,20.0
1352,-1e-05,-1e-05,-6e-05,-9e-05,-1e-05,-8e-05,0.0,-2e-05,1,20.0
1353,-1e-05,-1e-05,-6e-05,-9e-05,-1e-05,-8e-05,0.0,-2e-05,1,20.0
1354,-2e-05,-2e-05,4e-05,4e-05,-8e-05,-0.00012,-3e-05,-4e-05,1,20.0
1355,-2e-05,-2e-05,4e-05,4e-05,-8e-05,-0.00012,-3e-05,-4e-05,1,20.0
1356,-2e-05,-2e-05,4e-05,4e-05,-8e-05,-0.00012,-3e-05,-4e-05,1,20.0
1357,-2e-05,-2e-05,4e-05,4e-05,-8e-05,-0.00012,-3e-05,-4e-05,1,20.0
1358,-2e-05,-2e-05,4e-05,4e-05,-8e-05,-0.00012,-3e-05,-4e-05,1,20.0
1359,-2e-05,-2e-05,4e-05,4e-05,-8e-05,-0.00012,-3e-05,-4e-05,1,20.0
1360,-2e-05,-2e-05,4e-05,4e-05,-8e-05,-0.00012,-3e-05,-4e-05,1,20.0
1361,-2e-05,-2e-05,4e-05,4e-05,-8e-05,-0.00012,-3e-05,-4e-05,1,20.0
1362,-2e-05,-2e-05,4e-05,4e-05,-8e-05,-0.00012,-3e-05,-4e-05,1,20.0
1363,-2e-05,0.0,5e-05,9e-05,5e-05,0.00012,0.0,0.0,1,20.0
1364,-2e-05,0.0,5e-05,9e-05,5e-05,0.00012,0.0,0.0,1,20.0
1365,-2e-05,0.0,5e-05,9e-05,5e-05,0.00012,0.0,0.0,1,20.0
1366,-2e-05,0.0,5e-05,9e-05,5e-05,0.00012,0.0,0.0,1,20.0
1367,-2e-05,0.0,5e-05,9e-05,5e-05,0.00012,0.0,0.0,1,20.0
1368,-2e-05,0.0,5e-05,9e-05,5e-05,0.00012,0.0,0.0,1,20.0
1369,-2e-05,0.0,5e-05,9e-05,5e-05,0.00012,0.0,0.0,1,20.0
1370,-2e-05,0.0,5e-05,9e-05,5e-05,0.00012,0.0,0.0,1,20.0
1371,-2e-05,0.0,5e-05,9e-05,5e-05,0.00012,0.0,0.0,1,20.0
1372,-2e-05,0.0,5e-05,9e-05,5e-05,0.00012,0.0,0.0,1,20.0
1373,-2e-05,0.0,5e-05,9e-05,5e-05,0.00012,0.0,0.0,1,20.0
1374,-2e-05,0.0,5e-05,9e-05,5e-05,0.00012,0.0,0.0,1,20.0
1375,-2e-05,0.0,5e-05,9e-05,5e-05,0.00012,0.0,0.0,1,20.0
1376,-2e-05,0.0,5e-05,9e-05,5e-05,0.00012,0.0,0.0,1,20.0
1377,-2e-05,0.0,5e-05,9e-05,5e-05,0.00012,0.0,0.0,1,20.0
1378,-3e-05,-5e-05,-0.00012,-8e-05,-1e-05,-0.00011,-4e-05,-2e-05,1,20.0
1379,-3e-05,-5e-05,-0.00012,-8e-05,-1e-05,-0.00011,-4e-05,-2e-05,1,20.0
1380,1e-05,0.0,4e-05,5e-05,-2e-05,-2e-05,-1e-05,1e-05,1,20.0
1381,1e-05,0.0,4e-05,5e-05,-2e-05,-2e-05,-1e-05,1e-05,1,20.0
1382,1e-05,0.0,4e-05,5e-05,-2e-05,-2e-05,-1e-05,1e-05,1,20.0
1383,1e-05,0.0,4e-05,5e-05,-2e-05,-2e-05,-1e-05,1e-05,1,20.0
1384,1e-05,0.0,4e-05,5e-05,-2e-05,-2e-05,-1e-05,1e-05,1,20.0
1385,1e-05,0.0,4e-05,5e-05,-2e-05,-2e-05,-1e-05,1e-05,1,20.0
1386,1e-05,0.0,4e-05,5e-05,-2e-05,-2e-05,-1e-05,1e-05,1,20.0
1389,1e-05,0.0,4e-05,5e-05,-2e-05,-2e-05,-1e-05,1e-05,1,20.0
1390,1e-05,0.0,4e-05,5e-05,-2e-05,-2e-05,-1e-05,1e-05,1,20.0
1391,1e-05,0.0,4e-05,5e-05,-2e-05,-2e-05,-1e-05,1e-05,1,20.0
1392,1e-05,0.0,4e-05,5e-05,-2e-05,-2e-05,-1e-05,1e-05,1,20.0
1393,1e-05,0.0,4e-05,5e-05,-2e-05,-2e-05,-1e-05,1e-05,1,20.0
1394,1e-05,0.0,4e-05,5e-05,-2e-05,-2e-05,-1e-05,1e-05,1,20.0
1395,1e-05,0.0,4e-05,5e-05,-2e-05,-2e-05,-1e-05,1e-05,1,20.0
1396,1e-05,0.0,4e-05,5e-05,-2e-05,-2e-05,-1e-05,1e-05,1,20.0
1397,1e-05,0.0,4e-05,5e-05,-2e-05,-2e-05,-1e-05,1e-05,1,20.0
1398,1e-05,0.0,4e-05,5e-05,-2e-05,-2e-05,-1e-05,1e-05,1,20.0
1399,1e-05,0.0,4e-05,5e-05,-2e-05,-2e-05,-1e-05,1e-05,1,20.0
1400,1e-05,0.0,4e-05,5e-05,-2e-05,-2e-05,-1e-05,1e-05,1,20.0
1401,0.0,0.0,2e-05,-1e-05,-0.00012,-0.00013,0.0,-1e-05,1,20.0
1402,-4e-05,0.0,6e-05,4e-05,7e-05,0.0,-3e-05,3e-05,1,20.0
1403,-4e-05,0.0,6e-05,4e-05,7e-05,0.0,-3e-05,3e-05,1,20.0
1404,-4e-05,0.0,6e-05,4e-05,7e-05,0.0,-3e-05,3e-05,1,20.0
1405,-4e-05,0.0,6e-05,4e-05,7e-05,0.0,-3e-05,3e-05,1,20.0
1406,-4e-05,0.0,6e-05,4e-05,7e-05,0.0,-3e-05,3e-05,1,20.0
1407,-4e-05,0.0,6e-05,4e-05,7e-05,0.0,-3e-05,3e-05,1,20.0
1408,-4e-05,0.0,6e-05,4e-05,7e-05,0.0,-3e-05,3e-05,1,20.0
1409,-4e-05,0.0,6e-05,4e-05,7e-05,0.0,-3e-05,3e-05,1,20.0
1410,-4e-05,0.0,6e-05,4e-05,7e-05,0.0,-3e-05,3e-05,1,20.0
1411,-4e-05,0.0,6e-05,4e-05,7e-05,0.0,-3e-05,3e-05,1,20.0
1412,-4e-05,0.0,6e-05,4e-05,7e-05,0.0,-3e-05,3e-05,1,20.0
1413,-4e-05,0.0,6e-05,4e-05,7e-05,0.0,-3e-05,3e-05,1,20.0
1414,-4e-05,-5e-05,-8e-05,-8e-05,-9e-05,-3e-05,-3e-05,-9e-05,1,20.0
1415,-4e-05,-5e-05,-8e-05,-8e-05,-9e-05,-3e-05,-3e-05,-9e-05,1,20.0
1416,-4e-05,-5e-05,-8e-05,-8e-05,-9e-05,-3e-05,-3e-05,-9e-05,1,20.0
1417,-4e-05,-5e-05,-8e-05,-8e-05,-9e-05,-3e-05,-3e-05,-9e-05,1,20.0
1418,-4e-05,-5e-05,-8e-05,-8e-05,-9e-05,-3e-05,-3e-05,-9e-05,1,20.0
1419,-4e-05,-5e-05,-8e-05,-8e-05,-9e-05,-3e-05,-3e-05,-9e-05,1,20.0
1420,-4e-05,-5e-05,-8e-05,-8e-05,-9e-05,-3e-05,-3e-05,-9e-05,1,20.0
1421,-4e-05,-5e-05,-8e-05,-8e-05,-9e-05,-3e-05,-3e-05,-9e-05,1,20.0
1422,-4e-05,-5e-05,-8e-05,-8e-05,-9e-05,-3e-05,-3e-05,-9e-05,1,20.0
1423,2e-05,2e-05,6e-05,0.00017,0.0002,4e-05,3e-05,2e-05,1,20.0
1424,2e-05,2e-05,6e-05,0.00017,0.0002,4e-05,3e-05,2e-05,1,20.0
1425,2e-05,2e-05,6e-05,0.00017,0.0002,4e-05,3e-05,2e-05,1,20.0
1426,2e-05,2e-05,6e-05,0.00017,0.0002,4e-05,3e-05,2e-05,1,20.0
1427,2e-05,2e-05,6e-05,0.00017,0.0002,4e-05,3e-05,2e-05,1,20.0
1428,2e-05,2e-05,6e-05,0.00017,0.0002,4e-05,3e-05,2e-05,1,20.0
1429,2e-05,2e-05,6e-05,0.00017,0.0002,4e-05,3e-05,2e-05,1,20.0
1430,2e-05,2e-05,6e-05,0.00017,0.0002,4e-05,3e-05,2e-05,1,20.0
1431,2e-05,2e-05,6e-05,0.00017,0.0002,4e-05,3e-05,2e-05,1,20.0
1432,2e-05,2e-05,6e-05,0.00017,0.0002,4e-05,3e-05,2e-05,1,20.0
1433,2e-05,2e-05,6e-05,0.00017,0.0002,4e-05,3e-05,2e-05,1,20.0
1434,2e-05,2e-05,6e-05,0.00017,0.0002,4e-05,3e-05,2e-05,1,20.0
1435,2e-05,2e-05,6e-05,0.00017,0.0002,4e-05,3e-05,2e-05,1,20.0
1436,2e-05,2e-05,6e-05,0.00017,0.0002,4e-05,3e-05,2e-05,1,20.0
1439,0.0,3e-05,0.0,-4e-05,-5e-05,-0.00019,1e-05,-4e-05,1,20.0
1440,-5e-05,-4e-05,-0.0001,-0.00012,-0.0001,-6e-05,-1e-05,-6e-05,1,20.0
1441,-5e-05,-4e-05,-0.0001,-0.00012,-0.0001,-6e-05,-1e-05,-6e-05,1,20.0
1442,-5e-05,-4e-05,-0.0001,-0.00012,-0.0001,-6e-05,-1e-05,-6e-05,1,20.0
1443,-5e-05,-4e-05,-0.0001,-0.00012,-0.0001,-6e-05,-1e-05,-6e-05,1,20.0
1444,-5e-05,-4e-05,-0.0001,-0.00012,-0.0001,-6e-05,-1e-05,-6e-05,1,20.0
1445,-5e-05,-4e-05,-0.0001,-0.00012,-0.0001,-6e-05,-1e-05,-6e-05,1,20.0
1446,-5e-05,-4e-05,-0.0001,-0.00012,-0.0001,-6e-05,-1e-05,-6e-05,1,20.0
1447,-5e-05,-4e-05,-0.0001,-0.00012,-0.0001,-6e-05,-1e-05,-6e-05,1,20.0
1448,-5e-05,-4e-05,-0.0001,-0.00012,-0.0001,-6e-05,-1e-05,-6e-05,1,20.0
1449,-5e-05,-4e-05,-0.0001,-0.00012,-0.0001,-6e-05,-1e-05,-6e-05,1,20.0
1450,-5e-05,-4e-05,-0.0001,-0.00012,-0.0001,-6e-05,-1e-05,-6e-05,1,20.0
1451,-5e-05,-4e-05,-0.0001,-0.00012,-0.0001,-6e-05,-1e-05,-6e-05,1,20.0
1452,-5e-05,-4e-05,-0.0001,-0.00012,-0.0001,-6e-05,-1e-05,-6e-05,1,20.0
1453,-5e-05,-4e-05,-0.0001,-0.00012,-0.0001,-6e-05,-1e-05,-6e-05,1,20.0
1454,-5e-05,-4e-05,-0.0001,-0.00012,-0.0001,-6e-05,-1e-05,-6e-05,1,20.0
1455,-5e-05,-4e-05,-0.0001,-0.00012,-0.0001,-6e-05,-1e-05,-6e-05,1,20.0
1456,-5e-05,-4e-05,-0.0001,-0.00012,-0.0001,-6e-05,-1e-05,-6e-05,1,20.0
1457,-5e-05,-4e-05,-0.0001,-0.00012,-0.0001,-6e-05,-1e-05,-6e-05,1,20.0
1458,-5e-05,-4e-05,-0.0001,-0.00012,-0.0001,-6e-05,-1e-05,-6e-05,1,20.0
1459,-5e-05,-4e-05,-0.0001,-0.00012,-0.0001,-6e-05,-1e-05,-6e-05,1,20.0
1460,-5e-05,-4e-05,-0.0001,-0.00012,-0.0001,-6e-05,-1e-05,-6e-05,1,20.0
1461,1e-05,0.0,0.0,5e-05,0.0,-1e-05,-3e-05,0.0,1,20.0
1462,2e-05,-1e-05,-3e-05,-7e-05,0.0,2e-05,-4e-05,-1e-05,1,20.0
1463,2e-05,-1e-05,-3e-05,-7e-05,0.0,2e-05,-4e-05,-1e-05,1,20.0
1464,2e-05,-1e-05,-3e-05,-7e-05,0.0,2e-05,-4e-05,-1e-05,1,20.0
1465,2e-05,-1e-05,-3e-05,-7e-05,0.0,2e-05,-4e-05,-1e-05,1,20.0
1466,2e-05,-1e-05,-3e-05,-7e-05,0.0,2e-05,-4e-05,-1e-05,1,20.0
1467,2e-05,-1e-05,-3e-05,-7e-05,0.0,2e-05,-4e-05,-1e-05,1,20.0
1468,2e-05,-1e-05,-3e-05,-7e-05,0.0,2e-05,-4e-05,-1e-05,1,20.0
1469,2e-05,-1e-05,-3e-05,-7e-05,0.0,2e-05,-4e-05,-1e-05,1,20.0
1470,2e-05,-1e-05,-3e-05,-7e-05,0.0,2e-05,-4e-05,-1e-05,1,20.0
1471,2e-05,-1e-05,-3e-05,-7e-05,0.0,2e-05,-4e-05,-1e-05,1,20.0
1472,2e-05,-1e-05,-3e-05,-7e-05,0.0,2e-05,-4e-05,-1e-05,1,20.0
1473,2e-05,-1e-05,-3e-05,-7e-05,0.0,2e-05,-4e-05,-1e-05,1,20.0
1474,-1e-05,1e-05,6e-05,7e-05,-2e-05,-2e-05,1e-05,1e-05,1,20.0
1475,-1e-05,1e-05,6e-05,7e-05,-2e-05,-2e-05,1e-05,1e-05,1,20.0
1476,-1e-05,1e-05,6e-05,7e-05,-2e-05,-2e-05,1e-05,1e-05,1,20.0
1477,-1e-05,1e-05,6e-05,7e-05,-2e-05,-2e-05,1e-05,1e-05,1,20.0
1478,-1e-05,1e-05,6e-05,7e-05,-2e-05,-2e-05,1e-05,1e-05,1,20.0
1479,-1e-05,1e-05,6e-05,7e-05,-2e-05,-2e-05,1e-05,1e-05,1,20.0
1480,-1e-05,1e-05,6e-05,7e-05,-2e-05,-2e-05,1e-05,1e-05,1,20.0
1481,-1e-05,1e-05,6e-05,7e-05,-2e-05,-2e-05,1e-05,1e-05,1,20.0
1482,-1e-05,1e-05,6e-05,7e-05,-2e-05,-2e-05,1e-05,1e-05,1,20.0
1483,-1e-05,1e-05,2e-05,7e-05,1e-05,6e-05,0.0,2e-05,1,20.0
1484,-1e-05,1e-05,2e-05,7e-05,1e-05,6e-05,0.0,2e-05,1,20.0
1485,-1e-05,1e-05,2e-05,7e-05,1e-05,6e-05,0.0,2e-05,1,20.0
1486,-1e-05,1e-05,2e-05,7e-05,1e-05,6e-05,0.0,2e-05,1,20.0
1488,-1e-05,1e-05,2e-05,7e-05,1e-05,6e-05,0.0,2e-05,1,20.0
1489,-1e-05,1e-05,2e-05,7e-05,1e-05,6e-05,0.0,2e-05,1,20.0
1490,-1e-05,1e-05,2e-05,7e-05,1e-05,6e-05,0.0,2e-05,1,20.0
1491,-1e-05,1e-05,2e-05,7e-05,1e-05,6e-05,0.0,2e-05,1,20.0
1492,-1e-05,1e-05,2e-05,7e-05,1e-05,6e-05,0.0,2e-05,1,20.0
1493,-1e-05,1e-05,2e-05,7e-05,1e-05,6e-05,0.0,2e-05,1,20.0
1494,-1e-05,1e-05,2e-05,7e-05,1e-05,6e-05,0.0,2e-05,1,20.0
1495,-1e-05,1e-05,2e-05,7e-05,1e-05,6e-05,0.0,2e-05,1,20.0
1496,-1e-05,1e-05,2e-05,7e-05,1e-05,6e-05,0.0,2e-05,1,20.0
1497,-1e-05,1e-05,2e-05,7e-05,1e-05,6e-05,0.0,2e-05,1,20.0
1498,-1e-05,1e-05,2e-05,7e-05,1e-05,6e-05,0.0,2e-05,1,20.0
1499,3e-05,-2e-05,-5e-05,-6e-05,-5e-05,4e-05,-1e-05,-3e-05,1,20.0
1500,-1e-05,-2e-05,-5e-05,-2e-05,-5e-05,-2e-05,3e-05,-4e-05,1,20.0
1501,-1e-05,-2e-05,-5e-05,-2e-05,-5e-05,-2e-05,3e-05,-4e-05,1,20.0
1502,-1e-05,-2e-05,-5e-05,-2e-05,-5e-05,-2e-05,3e-05,-4e-05,1,20.0
1503,-1e-05,-2e-05,-5e-05,-2e-05,-5e-05,-2e-05,3e-05,-4e-05,1,20.0
1504,-1e-05,-2e-05,-5e-05,-2e-05,-5e-05,-2e-05,3e-05,-4e-05,1,20.0
1505,-1e-05,-2e-05,-5e-05,-2e-05,-5e-05,-2e-05,3e-05,-4e-05,1,20.0
1506,-1e-05,-2e-05,-5e-05,-2e-05,-5e-05,-2e-05,3e-05,-4e-05,1,20.0
1507,-1e-05,-2e-05,-5e-05,-2e-05,-5e-05,-2e-05,3e-05,-4e-05,1,20.0
1508,-1e-05,-2e-05,-5e-05,-2e-05,-5e-05,-2e-05,3e-05,-4e-05,1,20.0
1509,-1e-05,-2e-05,-5e-05,-2e-05,-5e-05,-2e-05,3e-05,-4e-05,1,20.0
1510,-1e-05,-2e-05,-5e-05,-2e-05,-5e-05,-2e-05,3e-05,-4e-05,1,20.0
1511,-1e-05,-2e-05,-5e-05,-2e-05,-5e-05,-2e-05,3e-05,-4e-05,1,20.0
1512,-1e-05,-2e-05,-5e-05,-2e-05,-5e-05,-2e-05,3e-05,-4e-05,1,20.0
1513,-1e-05,-2e-05,-5e-05,-2e-05,-5e-05,-2e-05,3e-05,-4e-05,1,20.0
1514,-1e-05,-2e-05,-5e-05,-2e-05,-5e-05,-2e-05,3e-05,-4e-05,1,20.0
1515,-1e-05,-2e-05,-5e-05,-2e-05,-5e-05,-2e-05,3e-05,-4e-05,1,20.0
1516,-1e-05,-2e-05,-5e-05,-2e-05,-5e-05,-2e-05,3e-05,-4e-05,1,20.0
1517,-1e-05,-2e-05,-5e-05,-2e-05,-5e-05,-2e-05,3e-05,-4e-05,1,20.0
1518,-1e-05,-2e-05,-5e-05,-2e-05,-5e-05,-2e-05,3e-05,-4e-05,1,20.0
1519,-1e-05,-2e-05,-5e-05,-2e-05,-5e-05,-2e-05,3e-05,-4e-05,1,20.0
1520,0.0,-1e-05,1e-05,-1e-05,2e-05,-9e-05,2e-05,8e-05,1,20.0
1521,-2e-05,0.0,0.0,2e-05,7e-05,2e-05,0.0,-1e-05,1,20.0
1522,-2e-05,-3e-05,-3e-05,-0.00011,-6e-05,-3e-05,-3e-05,-0.0002,1,20.0
1523,-2e-05,-3e-05,-3e-05,-0.00011,-6e-05,-3e-05,-3e-05,-0.0002,1,20.0
1524,-2e-05,-3e-05,-3e-05,-0.00011,-6e-05,-3e-05,-3e-05,-0.0002,1,20.0
1525,-2e-05,-3e-05,-3e-05,-0.00011,-6e-05,-3e-05,-3e-05,-0.0002,1,20.0
1526,-2e-05,-3e-05,-3e-05,-0.00011,-6e-05,-3e-05,-3e-05,-0.0002,1,20.0
1527,-2e-05,-3e-05,-3e-05,-0.00011,-6e-05,-3e-05,-3e-05,-0.0002,1,20.0
1528,-2e-05,-3e-05,-3e-05,-0.00011,-6e-05,-3e-05,-3e-05,-0.0002,1,20.0
1529,-2e-05,-3e-05,-3e-05,-0.00011,-6e-05,-3e-05,-3e-05,-0.0002,1,20.0
1530,-2e-05,-3e-05,-3e-05,-0.00011,-6e-05,-3e-05,-3e-05,-0.0002,1,20.0
1531,-2e-05,-3e-05,-3e-05,-0.00011,-6e-05,-3e-05,-3e-05,-0.0002,1,20.0
1532,-2e-05,-3e-05,-3e-05,-0.00011,-6e-05,-3e-05,-3e-05,-0.0002,1,20.0
1533,-2e-05,-3e-05,-3e-05,-0.00011,-6e-05,-3e-05,-3e-05,-0.0002,1,20.0
1534,-2e-05,-1e-05,-2e-05,-3e-05,-0.0001,-0.00017,-4e-05,-1e-05,1,20.0
1535,-2e-05,-1e-05,-2e-05,-3e-05,-0.0001,-0.00017,-4e-05,-1e-05,1,20.0
1536,-2e-05,-1e-05,-2e-05,-3e-05,-0.0001,-0.00017,-4e-05,-1e-05,1,20.0
1538,-2e-05,-1e-05,-2e-05,-3e-05,-0.0001,-0.00017,-4e-05,-1e-05,1,20.0
1539,-2e-05,-1e-05,-2e-05,-3e-05,-0.0001,-0.00017,-4e-05,-1e-05,1,20.0
1540,-2e-05,-1e-05,-2e-05,-3e-05,-0.0001,-0.00017,-4e-05,-1e-05,1,20.0
1541,-2e-05,-1e-05,-2e-05,-3e-05,-0.0001,-0.00017,-4e-05,-1e-05,1,20.0
1542,-2e-05,-1e-05,-2e-05,-3e-05,-0.0001,-0.00017,-4e-05,-1e-05,1,20.0
1543,1e-05,-2e-05,-3e-05,-3e-05,-0.00014,-5e-05,2e-05,3e-05,1,20.0
1545,1e-05,-2e-05,-3e-05,-3e-05,-0.00014,-5e-05,2e-05,3e-05,1,20.0
1546,1e-05,-2e-05,-3e-05,-3e-05,-0.00014,-5e-05,2e-05,3e-05,1,20.0
1547,1e-05,-2e-05,-3e-05,-3e-05,-0.00014,-5e-05,2e-05,3e-05,1,20.0
1548,1e-05,-2e-05,-3e-05,-3e-05,-0.00014,-5e-05,2e-05,3e-05,1,20.0
1549,1e-05,-2e-05,-3e-05,-3e-05,-0.00014,-5e-05,2e-05,3e-05,1,20.0
1550,1e-05,-2e-05,-3e-05,-3e-05,-0.00014,-5e-05,2e-05,3e-05,1,20.0
1551,1e-05,-2e-05,-3e-05,-3e-05,-0.00014,-5e-05,2e-05,3e-05,1,20.0
1552,1e-05,-2e-05,-3e-05,-3e-05,-0.00014,-5e-05,2e-05,3e-05,1,20.0
1553,1e-05,-2e-05,-3e-05,-3e-05,-0.00014,-5e-05,2e-05,3e-05,1,20.0
1554,1e-05,-2e-05,-3e-05,-3e-05,-0.00014,-5e-05,2e-05,3e-05,1,20.0
1555,1e-05,-2e-05,-3e-05,-3e-05,-0.00014,-5e-05,2e-05,3e-05,1,20.0
1556,1e-05,-2e-05,-3e-05,-3e-05,-0.00014,-5e-05,2e-05,3e-05,1,20.0
1557,1e-05,-2e-05,-3e-05,-3e-05,-0.00014,-5e-05,2e-05,3e-05,1,20.0
1558,-1e-05,-2e-05,0.0,3e-05,0.00016,1e-05,-2e-05,-1e-05,1,20.0
1559,-1e-05,-2e-05,0.0,3e-05,0.00016,1e-05,-2e-05,-1e-05,1,20.0
1560,-2e-05,-4e-05,-0.00012,-0.0001,-6e-05,0.00035,-4e-05,3e-05,1,20.0
1561,-2e-05,-4e-05,-0.00012,-0.0001,-6e-05,0.00035,-4e-05,3e-05,1,20.0
1562,-2e-05,-4e-05,-0.00012,-0.0001,-6e-05,0.00035,-4e-05,3e-05,1,20.0
1563,-2e-05,-4e-05,-0.00012,-0.0001,-6e-05,0.00035,-4e-05,3e-05,1,20.0
1564,-2e-05,-4e-05,-0.00012,-0.0001,-6e-05,0.00035,-4e-05,3e-05,1,20.0
1565,-2e-05,-4e-05,-0.00012,-0.0001,-6e-05,0.00035,-4e-05,3e-05,1,20.0
1568,-2e-05,-4e-05,-0.00012,-0.0001,-6e-05,0.00035,-4e-05,3e-05,1,20.0
1569,-2e-05,-4e-05,-0.00012,-0.0001,-6e-05,0.00035,-4e-05,3e-05,1,20.0
1570,-2e-05,-4e-05,-0.00012,-0.0001,-6e-05,0.00035,-4e-05,3e-05,1,20.0
1571,-2e-05,-4e-05,-0.00012,-0.0001,-6e-05,0.00035,-4e-05,3e-05,1,20.0
1572,-2e-05,-4e-05,-0.00012,-0.0001,-6e-05,0.00035,-4e-05,3e-05,1,20.0
1573,-2e-05,-4e-05,-0.00012,-0.0001,-6e-05,0.00035,-4e-05,3e-05,1,20.0
1574,-2e-05,-4e-05,-0.00012,-0.0001,-6e-05,0.00035,-4e-05,3e-05,1,20.0
1575,-2e-05,-4e-05,-0.00012,-0.0001,-6e-05,0.00035,-4e-05,3e-05,1,20.0
1576,-2e-05,-4e-05,-0.00012,-0.0001,-6e-05,0.00035,-4e-05,3e-05,1,20.0
1577,-2e-05,-4e-05,-0.00012,-0.0001,-6e-05,0.00035,-4e-05,3e-05,1,20.0
1579,-2e-05,-4e-05,-0.00012,-0.0001,-6e-05,0.00035,-4e-05,3e-05,1,20.0
1580,-2e-05,-4e-05,-0.00012,-0.0001,-6e-05,0.00035,-4e-05,3e-05,1,20.0
1581,-2e-05,5e-05,9e-05,3e-05,3e-05,0.0,3e-05,1e-05,1,20.0
1582,2e-05,2e-05,7e-05,3e-05,3e-05,1e-05,-2e-05,0.0,1,20.0
1583,-4e-05,-2e-05,0.0,1e-05,-1e-05,8e-05,-5e-05,1e-05,1,20.0
1584,-4e-05,-2e-05,0.0,1e-05,-1e-05,8e-05,-5e-05,1e-05,1,20.0
1585,-4e-05,-2e-05,0.0,1e-05,-1e-05,8e-05,-5e-05,1e-05,1,20.0
1586,-4e-05,-2e-05,0.0,1e-05,-1e-05,8e-05,-5e-05,1e-05,1,20.0
1588,-4e-05,-2e-05,0.0,1e-05,-1e-05,8e-05,-5e-05,1e-05,1,20.0
1589,-4e-05,-2e-05,0.0,1e-05,-1e-05,8e-05,-5e-05,1e-05,1,20.0
1590,-4e-05,-2e-05,0.0,1e-05,-1e-05,8e-05,-5e-05,1e-05,1,20.0
1591,-4e-05,-2e-05,0.0,1e-05,-1e-05,8e-05,-5e-05,1e-05,1,20.0
1592,-4e-05,-2e-05,0.0,1e-05,-1e-05,8e-05,-5e-05,1e-05,1,20.0
1593,-4e-05,-2e-05,0.0,1e-05,-1e-05,8e-05,-5e-05,1e-05,1,20.0
1594,-4e-05,-2e-05,0.0,1e-05,-1e-05,8e-05,-5e-05,1e-05,1,20.0
1595,1e-05,-1e-05,-6e-05,0.0,0.00016,-1e-05,0.0,5e-05,1,20.0
1596,1e-05,-1e-05,-6e-05,0.0,0.00016,-1e-05,0.0,5e-05,1,20.0
1597,1e-05,-1e-05,-6e-05,0.0,0.00016,-1e-05,0.0,5e-05,1,20.0
1598,1e-05,-1e-05,-6e-05,0.0,0.00016,-1e-05,0.0,5e-05,1,20.0
1599,1e-05,-1e-05,-6e-05,0.0,0.00016,-1e-05,0.0,5e-05,1,20.0
1600,1e-05,-1e-05,-6e-05,0.0,0.00016,-1e-05,0.0,5e-05,1,20.0
1601,1e-05,-1e-05,-6e-05,0.0,0.00016,-1e-05,0.0,5e-05,1,20.0
1602,1e-05,-1e-05,-6e-05,0.0,0.00016,-1e-05,0.0,5e-05,1,20.0
1603,1e-05,0.0,4e-05,-2e-05,-2e-05,-0.00012,-2e-05,0.0,1,20.0
1604,1e-05,0.0,4e-05,-2e-05,-2e-05,-0.00012,-2e-05,0.0,1,20.0
1605,1e-05,0.0,4e-05,-2e-05,-2e-05,-0.00012,-2e-05,0.0,1,20.0
1606,1e-05,0.0,4e-05,-2e-05,-2e-05,-0.00012,-2e-05,0.0,1,20.0
1607,1e-05,0.0,4e-05,-2e-05,-2e-05,-0.00012,-2e-05,0.0,1,20.0
1608,1e-05,0.0,4e-05,-2e-05,-2e-05,-0.00012,-2e-05,0.0,1,20.0
1609,1e-05,0.0,4e-05,-2e-05,-2e-05,-0.00012,-2e-05,0.0,1,20.0
1610,1e-05,0.0,4e-05,-2e-05,-2e-05,-0.00012,-2e-05,0.0,1,20.0
1611,1e-05,0.0,4e-05,-2e-05,-2e-05,-0.00012,-2e-05,0.0,1,20.0
1612,1e-05,0.0,4e-05,-2e-05,-2e-05,-0.00012,-2e-05,0.0,1,20.0
1613,1e-05,0.0,4e-05,-2e-05,-2e-05,-0.00012,-2e-05,0.0,1,20.0
1614,1e-05,0.0,4e-05,-2e-05,-2e-05,-0.00012,-2e-05,0.0,1,20.0
1615,1e-05,0.0,4e-05,-2e-05,-2e-05,-0.00012,-2e-05,0.0,1,20.0
1616,1e-05,0.0,4e-05,-2e-05,-2e-05,-0.00012,-2e-05,0.0,1,20.0
1617,1e-05,-1e-05,-4e-05,-8e-05,6e-05,-0.0001,-2e-05,-1e-05,1,20.0
1618,1e-05,-1e-05,-4e-05,-8e-05,6e-05,-0.0001,-2e-05,-1e-05,1,20.0
1619,1e-05,-1e-05,-4e-05,-8e-05,6e-05,-0.0001,-2e-05,-1e-05,1,20.0
1620,1e-05,-1e-05,-4e-05,-8e-05,6e-05,-0.0001,-2e-05,-1e-05,1,20.0
1621,1e-05,-1e-05,-4e-05,-8e-05,6e-05,-0.0001,-2e-05,-1e-05,1,20.0
1622,1e-05,-1e-05,-4e-05,-8e-05,6e-05,-0.0001,-2e-05,-1e-05,1,20.0
1623,1e-05,-1e-05,-4e-05,-8e-05,6e-05,-0.0001,-2e-05,-1e-05,1,20.0
1624,-2e-05,2e-05,6e-05,0.0001,0.00014,-8e-05,6e-05,7e-05,1,20.0
1625,-2e-05,2e-05,6e-05,0.0001,0.00014,-8e-05,6e-05,7e-05,1,20.0
1626,-2e-05,2e-05,6e-05,0.0001,0.00014,-8e-05,6e-05,7e-05,1,20.0
1627,-2e-05,2e-05,6e-05,0.0001,0.00014,-8e-05,6e-05,7e-05,1,20.0
1628,-2e-05,2e-05,6e-05,0.0001,0.00014,-8e-05,6e-05,7e-05,1,20.0
1629,-2e-05,2e-05,6e-05,0.0001,0.00014,-8e-05,6e-05,7e-05,1,20.0
1630,-2e-05,2e-05,6e-05,0.0001,0.00014,-8e-05,6e-05,7e-05,1,20.0
1631,-2e-05,2e-05,6e-05,0.0001,0.00014,-8e-05,6e-05,7e-05,1,20.0
1632,-2e-05,2e-05,6e-05,0.0001,0.00014,-8e-05,6e-05,7e-05,1,20.0
1633,-2e-05,2e-05,6e-05,0.0001,0.00014,-8e-05,6e-05,7e-05,1,20.0
1634,-2e-05,2e-05,6e-05,0.0001,0.00014,-8e-05,6e-05,7e-05,1,20.0
1635,-2e-05,2e-05,6e-05,0.0001,0.00014,-8e-05,6e-05,7e-05,1,20.0
1636,-2e-05,2e-05,6e-05,0.0001,0.00014,-8e-05,6e-05,7e-05,1,20.0
1638,-2e-05,2e-05,6e-05,0.0001,0.00014,-8e-05,6e-05,7e-05,1,20.0
1639,-2e-05,2e-05,6e-05,0.0001,0.00014,-8e-05,6e-05,7e-05,1,20.0
1640,0.0,-1e-05,0.0,-3e-05,0.0,-2e-05,-4e-05,0.0,1,20.0
1641,0.0,-4e-05,-8e-05,-7e-05,-0.0001,0.0001,3e-05,8e-05,1,20.0
1642,-2e-05,-2e-05,-1e-05,-3e-05,0.00015,-8e-05,-1e-05,1e-05,1,20.0
1643,-2e-05,-2e-05,-1e-05,-3e-05,0.00015,-8e-05,-1e-05,1e-05,1,20.0
1644,-2e-05,-2e-05,-1e-05,-3e-05,0.00015,-8e-05,-1e-05,1e-05,1,20.0
1645,-2e-05,-2e-05,-1e-05,-3e-05,0.00015,-8e-05,-1e-05,1e-05,1,20.0
1646,-2e-05,-2e-05,-1e-05,-3e-05,0.00015,-8e-05,-1e-05,1e-05,1,20.0
1647,-2e-05,-2e-05,-1e-05,-3e-05,0.00015,-8e-05,-1e-05,1e-05,1,20.0
1648,-2e-05,-2e-05,-1e-05,-3e-05,0.00015,-8e-05,-1e-05,1e-05,1,20.0
1649,-2e-05,-2e-05,-1e-05,-3e-05,0.00015,-8e-05,-1e-05,1e-05,1,20.0
1650,-2e-05,-2e-05,-1e-05,-3e-05,0.00015,-8e-05,-1e-05,1e-05,1,20.0
1651,-2e-05,-2e-05,-1e-05,-3e-05,0.00015,-8e-05,-1e-05,1e-05,1,20.0
1652,-2e-05,-2e-05,-1e-05,-3e-05,0.00015,-8e-05,-1e-05,1e-05,1,20.0
1653,-2e-05,-2e-05,-1e-05,-3e-05,0.00015,-8e-05,-1e-05,1e-05,1,20.0
1654,-2e-05,-2e-05,-1e-05,-3e-05,0.00015,-8e-05,-1e-05,1e-05,1,20.0
1655,-2e-05,-2e-05,-1e-05,-3e-05,0.00015,-8e-05,-1e-05,1e-05,1,20.0
1656,-2e-05,-2e-05,-1e-05,-3e-05,0.00015,-8e-05,-1e-05,1e-05,1,20.0
1657,-2e-05,-2e-05,-1e-05,-3e-05,0.00015,-8e-05,-1e-05,1e-05,1,20.0
1658,-2e-05,-2e-05,-1e-05,-3e-05,0.00015,-8e-05,-1e-05,1e-05,1,20.0
1659,-2e-05,-2e-05,-1e-05,-3e-05,0.00015,-8e-05,-1e-05,1e-05,1,20.0
1660,-2e-05,-2e-05,-1e-05,-3e-05,0.00015,-8e-05,-1e-05,1e-05,1,20.0
1661,-2e-05,-2e-05,-1e-05,-3e-05,0.00015,-8e-05,-1e-05,1e-05,1,20.0
1662,-2e-05,-2e-05,-1e-05,-3e-05,0.00015,-8e-05,-1e-05,1e-05,1,20.0
1663,-2e-05,1e-05,3e-05,4e-05,-0.00019,1e-05,0.0,-3e-05,1,20.0
1664,-2e-05,1e-05,3e-05,4e-05,-0.00019,1e-05,0.0,-3e-05,1,20.0
1665,0.0,0.0,1e-05,0.00011,7e-05,-7e-05,-2e-05,1e-05,1,20.0
1666,0.0,0.0,1e-05,0.00011,7e-05,-7e-05,-2e-05,1e-05,1,20.0
1667,0.0,0.0,1e-05,0.00011,7e-05,-7e-05,-2e-05,1e-05,1,20.0
1668,0.0,0.0,1e-05,0.00011,7e-05,-7e-05,-2e-05,1e-05,1,20.0
1669,0.0,0.0,1e-05,0.00011,7e-05,-7e-05,-2e-05,1e-05,1,20.0
1670,0.0,0.0,1e-05,0.00011,7e-05,-7e-05,-2e-05,1e-05,1,20.0
1671,0.0,0.0,1e-05,0.00011,7e-05,-7e-05,-2e-05,1e-05,1,20.0
1672,0.0,0.0,1e-05,0.00011,7e-05,-7e-05,-2e-05,1e-05,1,20.0
1673,0.0,0.0,1e-05,0.00011,7e-05,-7e-05,-2e-05,1e-05,1,20.0
1674,0.0,0.0,1e-05,0.00011,7e-05,-7e-05,-2e-05,1e-05,1,20.0
1675,0.0,0.0,1e-05,0.00011,7e-05,-7e-05,-2e-05,1e-05,1,20.0
1676,0.0,0.0,1e-05,0.00011,7e-05,-7e-05,-2e-05,1e-05,1,20.0
1677,0.0,0.0,1e-05,0.00011,7e-05,-7e-05,-2e-05,1e-05,1,20.0
1678,2e-05,-3e-05,-0.00014,-9e-05,-7e-05,-1e-05,0.0,3e-05,1,20.0
1679,2e-05,-3e-05,-0.00014,-9e-05,-7e-05,-1e-05,0.0,3e-05,1,20.0
1680,0.0,-4e-05,-4e-05,-8e-05,-0.00014,-3e-05,0.0,-4e-05,1,20.0
1681,0.0,-4e-05,-4e-05,-8e-05,-0.00014,-3e-05,0.0,-4e-05,1,20.0
1682,0.0,-4e-05,-4e-05,-8e-05,-0.00014,-3e-05,0.0,-4e-05,1,20.0
1683,0.0,-4e-05,-4e-05,-8e-05,-0.00014,-3e-05,0.0,-4e-05,1,20.0
1684,0.0,-4e-05,-4e-05,-8e-05,-0.00014,-3e-05,0.0,-4e-05,1,20.0
1685,0.0,-4e-05,-4e-05,-8e-05,-0.00014,-3e-05,0.0,-4e-05,1,20.0
1686,0.0,-4e-05,-4e-05,-8e-05,-0.00014,-3e-05,0.0,-4e-05,1,20.0
1688,0.0,-4e-05,-4e-05,-8e-05,-0.00014,-3e-05,0.0,-4e-05,1,20.0
1689,0.0,-4e-05,-4e-05,-8e-05,-0.00014,-3e-05,0.0,-4e-05,1,20.0
1690,0.0,-4e-05,-4e-05,-8e-05,-0.00014,-3e-05,0.0,-4e-05,1,20.0
1691,0.0,-4e-05,-4e-05,-8e-05,-0.00014,-3e-05,0.0,-4e-05,1,20.0
1692,0.0,-4e-05,-4e-05,-8e-05,-0.00014,-3e-05,0.0,-4e-05,1,20.0
1693,0.0,-4e-05,-4e-05,-8e-05,-0.00014,-3e-05,0.0,-4e-05,1,20.0
1694,0.0,-4e-05,-4e-05,-8e-05,-0.00014,-3e-05,0.0,-4e-05,1,20.0
1695,0.0,-4e-05,-4e-05,-8e-05,-0.00014,-3e-05,0.0,-4e-05,1,20.0
1696,0.0,-4e-05,-4e-05,-8e-05,-0.00014,-3e-05,0.0,-4e-05,1,20.0
1697,0.0,-4e-05,-4e-05,-8e-05,-0.00014,-3e-05,0.0,-4e-05,1,20.0
1698,0.0,-4e-05,-4e-05,-8e-05,-0.00014,-3e-05,0.0,-4e-05,1,20.0
1699,0.0,-4e-05,-4e-05,-8e-05,-0.00014,-3e-05,0.0,-4e-05,1,20.0
1700,-2e-05,-1e-05,-4e-05,4e-05,0.00016,-1e-05,2e-05,1e-05,1,20.0
1701,0.0,2e-05,0.00014,4e-05,-0.00013,0.00058,-6e-05,-2e-05,1,20.0
1702,1e-05,1e-05,-4e-05,-7e-05,-5e-05,1e-05,-2e-05,0.0,1,20.0
1703,1e-05,1e-05,-4e-05,-7e-05,-5e-05,1e-05,-2e-05,0.0,1,20.0
1704,1e-05,1e-05,-4e-05,-7e-05,-5e-05,1e-05,-2e-05,0.0,1,20.0
1705,1e-05,1e-05,-4e-05,-7e-05,-5e-05,1e-05,-2e-05,0.0,1,20.0
1706,1e-05,1e-05,-4e-05,-7e-05,-5e-05,1e-05,-2e-05,0.0,1,20.0
1707,1e-05,1e-05,-4e-05,-7e-05,-5e-05,1e-05,-2e-05,0.0,1,20.0
1708,1e-05,1e-05,-4e-05,-7e-05,-5e-05,1e-05,-2e-05,0.0,1,20.0
1709,1e-05,1e-05,-4e-05,-7e-05,-5e-05,1e-05,-2e-05,0.0,1,20.0
1710,1e-05,1e-05,-4e-05,-7e-05,-5e-05,1e-05,-2e-05,0.0,1,20.0
1711,1e-05,1e-05,-4e-05,-7e-05,-5e-05,1e-05,-2e-05,0.0,1,20.0
1712,1e-05,1e-05,-4e-05,-7e-05,-5e-05,1e-05,-2e-05,0.0,1,20.0
1713,1e-05,1e-05,-4e-05,-7e-05,-5e-05,1e-05,-2e-05,0.0,1,20.0
1714,1e-05,1e-05,-4e-05,-7e-05,-5e-05,1e-05,-2e-05,0.0,1,20.0
1715,1e-05,1e-05,-4e-05,-7e-05,-5e-05,1e-05,-2e-05,0.0,1,20.0
1716,1e-05,1e-05,-4e-05,-7e-05,-5e-05,1e-05,-2e-05,0.0,1,20.0
1717,1e-05,1e-05,-4e-05,-7e-05,-5e-05,1e-05,-2e-05,0.0,1,20.0
1718,1e-05,1e-05,-4e-05,-7e-05,-5e-05,1e-05,-2e-05,0.0,1,20.0
1719,1e-05,1e-05,-4e-05,-7e-05,-5e-05,1e-05,-2e-05,0.0,1,20.0
1720,1e-05,1e-05,-4e-05,-7e-05,-5e-05,1e-05,-2e-05,0.0,1,20.0
1721,1e-05,1e-05,-4e-05,-7e-05,-5e-05,1e-05,-2e-05,0.0,1,20.0
1722,1e-05,1e-05,-4e-05,-7e-05,-5e-05,1e-05,-2e-05,0.0,1,20.0
1723,-2e-05,-2e-05,-7e-05,-5e-05,-0.00012,-1e-05,-3e-05,-4e-05,1,20.0
1724,-2e-05,-2e-05,-7e-05,-5e-05,-0.00012,-1e-05,-3e-05,-4e-05,1,20.0
1725,0.0,-3e-05,0.0,-7e-05,-0.00012,-5e-05,-4e-05,-1e-05,1,20.0
1726,0.0,-3e-05,0.0,-7e-05,-0.00012,-5e-05,-4e-05,-1e-05,1,20.0
1727,0.0,-3e-05,0.0,-7e-05,-0.00012,-5e-05,-4e-05,-1e-05,1,20.0
1728,0.0,-3e-05,0.0,-7e-05,-0.00012,-5e-05,-4e-05,-1e-05,1,20.0
1729,0.0,-3e-05,0.0,-7e-05,-0.00012,-5e-05,-4e-05,-1e-05,1,20.0
1730,0.0,-3e-05,0.0,-7e-05,-0.00012,-5e-05,-4e-05,-1e-05,1,20.0
1731,0.0,-3e-05,0.0,-7e-05,-0.00012,-5e-05,-4e-05,-1e-05,1,20.0
1732,0.0,-3e-05,0.0,-7e-05,-0.00012,-5e-05,-4e-05,-1e-05,1,20.0
1733,0.0,-3e-05,0.0,-7e-05,-0.00012,-5e-05,-4e-05,-1e-05,1,20.0
1734,0.0,-3e-05,0.0,-7e-05,-0.00012,-5e-05,-4e-05,-1e-05,1,20.0
1735,0.0,-3e-05,0.0,-7e-05,-0.00012,-5e-05,-4e-05,-1e-05,1,20.0
1736,0.0,-3e-05,0.0,-7e-05,-0.00012,-5e-05,-4e-05,-1e-05,1,20.0
1739,-1e-05,-1e-05,6e-05,5e-05,0.0001,-0.00013,-2e-05,-5e-05,1,20.0
1740,-1e-05,-6e-05,-0.00014,-0.0002,-0.00016,-0.00013,1e-05,2e-05,1,20.0
1741,-1e-05,-6e-05,-0.00014,-0.0002,-0.00016,-0.00013,1e-05,2e-05,1,20.0
1742,-1e-05,-6e-05,-0.00014,-0.0002,-0.00016,-0.00013,1e-05,2e-05,1,20.0
1743,-1e-05,-6e-05,-0.00014,-0.0002,-0.00016,-0.00013,1e-05,2e-05,1,20.0
1744,-1e-05,-6e-05,-0.00014,-0.0002,-0.00016,-0.00013,1e-05,2e-05,1,20.0
1745,-1e-05,-6e-05,-0.00014,-0.0002,-0.00016,-0.00013,1e-05,2e-05,1,20.0
1746,-1e-05,-6e-05,-0.00014,-0.0002,-0.00016,-0.00013,1e-05,2e-05,1,20.0
1747,-1e-05,-6e-05,-0.00014,-0.0002,-0.00016,-0.00013,1e-05,2e-05,1,20.0
1748,-1e-05,-6e-05,-0.00014,-0.0002,-0.00016,-0.00013,1e-05,2e-05,1,20.0
1749,-1e-05,-6e-05,-0.00014,-0.0002,-0.00016,-0.00013,1e-05,2e-05,1,20.0
1750,-1e-05,-6e-05,-0.00014,-0.0002,-0.00016,-0.00013,1e-05,2e-05,1,20.0
1751,-1e-05,-6e-05,-0.00014,-0.0002,-0.00016,-0.00013,1e-05,2e-05,1,20.0
1752,-1e-05,-6e-05,-0.00014,-0.0002,-0.00016,-0.00013,1e-05,2e-05,1,20.0
1753,-1e-05,-6e-05,-0.00014,-0.0002,-0.00016,-0.00013,1e-05,2e-05,1,20.0
1754,-1e-05,-6e-05,-0.00014,-0.0002,-0.00016,-0.00013,1e-05,2e-05,1,20.0
1755,-1e-05,-6e-05,-0.00014,-0.0002,-0.00016,-0.00013,1e-05,2e-05,1,20.0
1756,-1e-05,-6e-05,-0.00014,-0.0002,-0.00016,-0.00013,1e-05,2e-05,1,20.0
1757,-1e-05,-6e-05,-0.00014,-0.0002,-0.00016,-0.00013,1e-05,2e-05,1,20.0
1758,-1e-05,-6e-05,-0.00014,-0.0002,-0.00016,-0.00013,1e-05,2e-05,1,20.0
1759,-1e-05,-6e-05,-0.00014,-0.0002,-0.00016,-0.00013,1e-05,2e-05,1,20.0
1760,-1e-05,-2e-05,-1e-05,3e-05,-5e-05,2e-05,-3e-05,-4e-05,1,20.0
1761,-1e-05,-2e-05,1e-05,4e-05,0.0,-0.00012,-4e-05,0.0,1,20.0
1762,-2e-05,0.0,-3e-05,3e-05,0.00011,4e-05,1e-05,1e-05,1,20.0
1763,-2e-05,0.0,-3e-05,3e-05,0.00011,4e-05,1e-05,1e-05,1,20.0
1764,-2e-05,0.0,-3e-05,3e-05,0.00011,4e-05,1e-05,1e-05,1,20.0
1765,-2e-05,0.0,-3e-05,3e-05,0.00011,4e-05,1e-05,1e-05,1,20.0
1766,-2e-05,0.0,-3e-05,3e-05,0.00011,4e-05,1e-05,1e-05,1,20.0
1767,-2e-05,0.0,-3e-05,3e-05,0.00011,4e-05,1e-05,1e-05,1,20.0
1768,-2e-05,0.0,-3e-05,3e-05,0.00011,4e-05,1e-05,1e-05,1,20.0
1769,-2e-05,0.0,-3e-05,3e-05,0.00011,4e-05,1e-05,1e-05,1,20.0
1770,-2e-05,0.0,-3e-05,3e-05,0.00011,4e-05,1e-05,1e-05,1,20.0
1771,-2e-05,0.0,-3e-05,3e-05,0.00011,4e-05,1e-05,1e-05,1,20.0
1772,-2e-05,0.0,-3e-05,3e-05,0.00011,4e-05,1e-05,1e-05,1,20.0
1773,-2e-05,0.0,-3e-05,3e-05,0.00011,4e-05,1e-05,1e-05,1,20.0
1774,-2e-05,0.0,-3e-05,3e-05,0.00011,4e-05,1e-05,1e-05,1,20.0
1775,-2e-05,0.0,-3e-05,3e-05,0.00011,4e-05,1e-05,1e-05,1,20.0
1776,-2e-05,0.0,-3e-05,3e-05,0.00011,4e-05,1e-05,1e-05,1,20.0
1777,-2e-05,0.0,-3e-05,3e-05,0.00011,4e-05,1e-05,1e-05,1,20.0
1778,-2e-05,0.0,-3e-05,3e-05,0.00011,4e-05,1e-05,1e-05,1,20.0
1779,-2e-05,0.0,-3e-05,3e-05,0.00011,4e-05,1e-05,1e-05,1,20.0
1780,-2e-05,0.0,-3e-05,3e-05,0.00011,4e-05,1e-05,1e-05,1,20.0
1781,-2e-05,0.0,-3e-05,3e-05,0.00011,4e-05,1e-05,1e-05,1,20.0
1782,-2e-05,0.0,-3e-05,3e-05,0.00011,4e-05,1e-05,1e-05,1,20.0
1783,-3e-05,2e-05,6e-05,-2e-05,-9e-05,-7e-05,1e-05,-4e-05,1,20.0
1784,-3e-05,2e-05,6e-05,-2e-05,-9e-05,-7e-05,1e-05,-4e-05,1,20.0
1785,-1e-05,-3e-05,-8e-05,-6e-05,-1e-05,-3e-05,-1e-05,-6e-05,1,20.0
1786,-1e-05,-3e-05,-8e-05,-6e-05,-1e-05,-3e-05,-1e-05,-6e-05,1,20.0
1788,-1e-05,-3e-05,-8e-05,-6e-05,-1e-05,-3e-05,-1e-05,-6e-05,1,20.0
1789,-1e-05,-3e-05,-8e-05,-6e-05,-1e-05,-3e-05,-1e-05,-6e-05,1,20.0
1790,-1e-05,-3e-05,-8e-05,-6e-05,-1e-05,-3e-05,-1e-05,-6e-05,1,20.0
1791,-1e-05,-3e-05,-8e-05,-6e-05,-1e-05,-3e-05,-1e-05,-6e-05,1,20.0
1792,-1e-05,-3e-05,-8e-05,-6e-05,-1e-05,-3e-05,-1e-05,-6e-05,1,20.0
1793,-1e-05,-3e-05,-8e-05,-6e-05,-1e-05,-3e-05,-1e-05,-6e-05,1,20.0
1794,-1e-05,-3e-05,-8e-05,-6e-05,-1e-05,-3e-05,-1e-05,-6e-05,1,20.0
1795,-1e-05,-3e-05,-8e-05,-6e-05,-1e-05,-3e-05,-1e-05,-6e-05,1,20.0
1796,-1e-05,-3e-05,-8e-05,-6e-05,-1e-05,-3e-05,-1e-05,-6e-05,1,20.0
1797,0.0,-2e-05,-1e-05,3e-05,9e-05,4e-05,-5e-05,-1e-05,1,20.0
1798,-2e-05,-4e-05,-6e-05,-0.00014,-1e-05,-0.00011,3e-05,-2e-05,1,20.0
1799,-2e-05,-4e-05,-6e-05,-0.00014,-1e-05,-0.00011,3e-05,-2e-05,1,20.0
1800,-2e-05,-4e-05,-6e-05,-0.00014,-1e-05,-0.00011,3e-05,-2e-05,1,20.0
1801,-2e-05,-4e-05,-6e-05,-0.00014,-1e-05,-0.00011,3e-05,-2e-05,1,20.0
1802,-2e-05,-4e-05,-6e-05,-0.00014,-1e-05,-0.00011,3e-05,-2e-05,1,20.0
1803,-2e-05,-4e-05,-6e-05,-0.00014,-1e-05,-0.00011,3e-05,-2e-05,1,20.0
1804,0.0,4e-05,6e-05,0.00022,0.00041,6e-05,1e-05,3e-05,1,20.0
1805,0.0,4e-05,6e-05,0.00022,0.00041,6e-05,1e-05,3e-05,1,20.0
1806,0.0,4e-05,6e-05,0.00022,0.00041,6e-05,1e-05,3e-05,1,20.0
1807,0.0,4e-05,6e-05,0.00022,0.00041,6e-05,1e-05,3e-05,1,20.0
1808,0.0,4e-05,6e-05,0.00022,0.00041,6e-05,1e-05,3e-05,1,20.0
1809,0.0,4e-05,6e-05,0.00022,0.00041,6e-05,1e-05,3e-05,1,20.0
1810,0.0,4e-05,6e-05,0.00022,0.00041,6e-05,1e-05,3e-05,1,20.0
1811,0.0,4e-05,6e-05,0.00022,0.00041,6e-05,1e-05,3e-05,1,20.0
1812,0.0,4e-05,6e-05,0.00022,0.00041,6e-05,1e-05,3e-05,1,20.0
1813,0.0,4e-05,6e-05,0.00022,0.00041,6e-05,1e-05,3e-05,1,20.0
1814,0.0,4e-05,6e-05,0.00022,0.00041,6e-05,1e-05,3e-05,1,20.0
1815,0.0,4e-05,6e-05,0.00022,0.00041,6e-05,1e-05,3e-05,1,20.0
1816,0.0,4e-05,6e-05,0.00022,0.00041,6e-05,1e-05,3e-05,1,20.0
1817,0.0,4e-05,6e-05,0.00022,0.00041,6e-05,1e-05,3e-05,1,20.0
1818,0.0,4e-05,6e-05,0.00022,0.00041,6e-05,1e-05,3e-05,1,20.0
1819,0.0,4e-05,6e-05,0.00022,0.00041,6e-05,1e-05,3e-05,1,20.0
1820,-3e-05,0.0,1e-05,-2e-05,-0.00016,-7e-05,-3e-05,-2e-05,1,20.0
1821,0.0,-2e-05,-4e-05,-5e-05,0.00022,-1e-05,-3e-05,1e-05,1,20.0
1822,-4e-05,-3e-05,0.0,0.0,-3e-05,0.0,1e-05,-2e-05,1,20.0
1823,-4e-05,-3e-05,0.0,0.0,-3e-05,0.0,1e-05,-2e-05,1,20.0
1824,-4e-05,-3e-05,0.0,0.0,-3e-05,0.0,1e-05,-2e-05,1,20.0
1825,-4e-05,-3e-05,0.0,0.0,-3e-05,0.0,1e-05,-2e-05,1,20.0
1826,-4e-05,-3e-05,0.0,0.0,-3e-05,0.0,1e-05,-2e-05,1,20.0
1827,-4e-05,-3e-05,0.0,0.0,-3e-05,0.0,1e-05,-2e-05,1,20.0
1828,-4e-05,-3e-05,0.0,0.0,-3e-05,0.0,1e-05,-2e-05,1,20.0
1829,-4e-05,-3e-05,0.0,0.0,-3e-05,0.0,1e-05,-2e-05,1,20.0
1830,-4e-05,-3e-05,0.0,0.0,-3e-05,0.0,1e-05,-2e-05,1,20.0
1831,-4e-05,-3e-05,0.0,0.0,-3e-05,0.0,1e-05,-2e-05,1,20.0
1832,-4e-05,-3e-05,0.0,0.0,-3e-05,0.0,1e-05,-2e-05,1,20.0
1833,-4e-05,-3e-05,0.0,0.0,-3e-05,0.0,1e-05,-2e-05,1,20.0
1834,-4e-05,-3e-05,0.0,0.0,-3e-05,0.0,1e-05,-2e-05,1,20.0
1835,-4e-05,-3e-05,0.0,0.0,-3e-05,0.0,1e-05,-2e-05,1,20.0
1836,-4e-05,-3e-05,0.0,0.0,-3e-05,0.0,1e-05,-2e-05,1,20.0
1838,-4e-05,-3e-05,0.0,0.0,-3e-05,0.0,1e-05,-2e-05,1,20.0
1839,-4e-05,-3e-05,0.0,0.0,-3e-05,0.0,1e-05,-2e-05,1,20.0
1840,-4e-05,-3e-05,0.0,0.0,-3e-05,0.0,1e-05,-2e-05,1,20.0
1841,-4e-05,-3e-05,0.0,0.0,-3e-05,0.0,1e-05,-2e-05,1,20.0
1842,-4e-05,-3e-05,0.0,0.0,-3e-05,0.0,1e-05,-2e-05,1,20.0
1843,-1e-05,-1e-05,1e-05,4e-05,-5e-05,0.0,-1e-05,-4e-05,1,20.0
1844,-1e-05,-1e-05,1e-05,4e-05,-5e-05,0.0,-1e-05,-4e-05,1,20.0
1845,0.0,1e-05,6e-05,-1e-05,-0.00018,-4e-05,-1e-05,0.0,1,20.0
1846,0.0,1e-05,6e-05,-1e-05,-0.00018,-4e-05,-1e-05,0.0,1,20.0
1847,0.0,1e-05,6e-05,-1e-05,-0.00018,-4e-05,-1e-05,0.0,1,20.0
1848,0.0,1e-05,6e-05,-1e-05,-0.00018,-4e-05,-1e-05,0.0,1,20.0
1849,0.0,1e-05,6e-05,-1e-05,-0.00018,-4e-05,-1e-05,0.0,1,20.0
1850,0.0,1e-05,6e-05,-1e-05,-0.00018,-4e-05,-1e-05,0.0,1,20.0
1851,0.0,1e-05,6e-05,-1e-05,-0.00018,-4e-05,-1e-05,0.0,1,20.0
1852,0.0,1e-05,6e-05,-1e-05,-0.00018,-4e-05,-1e-05,0.0,1,20.0
1853,0.0,1e-05,6e-05,-1e-05,-0.00018,-4e-05,-1e-05,0.0,1,20.0
1854,0.0,1e-05,6e-05,-1e-05,-0.00018,-4e-05,-1e-05,0.0,1,20.0
1855,0.0,1e-05,6e-05,-1e-05,-0.00018,-4e-05,-1e-05,0.0,1,20.0
1856,0.0,1e-05,6e-05,-1e-05,-0.00018,-4e-05,-1e-05,0.0,1,20.0
1857,0.0,1e-05,2e-05,0.0001,1e-05,-3e-05,2e-05,4e-05,1,20.0
1858,0.0,1e-05,2e-05,0.0001,1e-05,-3e-05,2e-05,4e-05,1,20.0
1859,0.0,1e-05,2e-05,0.0001,1e-05,-3e-05,2e-05,4e-05,1,20.0
1860,0.0,1e-05,2e-05,0.0001,1e-05,-3e-05,2e-05,4e-05,1,20.0
1861,0.0,1e-05,2e-05,0.0001,1e-05,-3e-05,2e-05,4e-05,1,20.0
1862,0.0,1e-05,2e-05,0.0001,1e-05,-3e-05,2e-05,4e-05,1,20.0
1863,0.0,1e-05,2e-05,0.0001,1e-05,-3e-05,2e-05,4e-05,1,20.0
1864,-4e-05,-1e-05,1e-05,-8e-05,-0.00041,-4e-05,-5e-05,-8e-05,1,20.0
1865,-4e-05,-1e-05,1e-05,-8e-05,-0.00041,-4e-05,-5e-05,-8e-05,1,20.0
1866,-4e-05,-1e-05,1e-05,-8e-05,-0.00041,-4e-05,-5e-05,-8e-05,1,20.0
1867,-4e-05,-1e-05,1e-05,-8e-05,-0.00041,-4e-05,-5e-05,-8e-05,1,20.0
1868,-4e-05,-1e-05,1e-05,-8e-05,-0.00041,-4e-05,-5e-05,-8e-05,1,20.0
1869,-4e-05,-1e-05,1e-05,-8e-05,-0.00041,-4e-05,-5e-05,-8e-05,1,20.0
1870,-4e-05,-1e-05,1e-05,-8e-05,-0.00041,-4e-05,-5e-05,-8e-05,1,20.0
1871,-4e-05,-1e-05,1e-05,-8e-05,-0.00041,-4e-05,-5e-05,-8e-05,1,20.0
1872,-4e-05,-1e-05,1e-05,-8e-05,-0.00041,-4e-05,-5e-05,-8e-05,1,20.0
1873,-4e-05,-1e-05,1e-05,-8e-05,-0.00041,-4e-05,-5e-05,-8e-05,1,20.0
1874,-4e-05,-1e-05,1e-05,-8e-05,-0.00041,-4e-05,-5e-05,-8e-05,1,20.0
1875,-4e-05,-1e-05,1e-05,-8e-05,-0.00041,-4e-05,-5e-05,-8e-05,1,20.0
1876,-4e-05,-1e-05,1e-05,-8e-05,-0.00041,-4e-05,-5e-05,-8e-05,1,20.0
1877,-4e-05,-1e-05,1e-05,-8e-05,-0.00041,-4e-05,-5e-05,-8e-05,1,20.0
1878,-4e-05,-1e-05,1e-05,-8e-05,-0.00041,-4e-05,-5e-05,-8e-05,1,20.0
1879,-4e-05,-1e-05,1e-05,-8e-05,-0.00041,-4e-05,-5e-05,-8e-05,1,20.0
1880,1e-05,1e-05,1e-05,5e-05,0.00014,2e-05,0.0,0.0,1,20.0
1881,3e-05,-2e-05,-3e-05,-6e-05,-4e-05,5e-05,-3e-05,-3e-05,1,20.0
1882,-1e-05,-1e-05,6e-05,3e-05,7e-05,-2e-05,-3e-05,0.0,1,20.0
1883,-1e-05,-1e-05,6e-05,3e-05,7e-05,-2e-05,-3e-05,0.0,1,20.0
1884,-1e-05,-1e-05,6e-05,3e-05,7e-05,-2e-05,-3e-05,0.0,1,20.0
1885,-1e-05,-1e-05,6e-05,3e-05,7e-05,-2e-05,-3e-05,0.0,1,20.0
1886,-1e-05,-1e-05,6e-05,3e-05,7e-05,-2e-05,-3e-05,0.0,1,20.0
1888,-1e-05,-1e-05,6e-05,3e-05,7e-05,-2e-05,-3e-05,0.0,1,20.0
1889,-1e-05,-1e-05,6e-05,3e-05,7e-05,-2e-05,-3e-05,0.0,1,20.0
1890,-1e-05,-1e-05,6e-05,3e-05,7e-05,-2e-05,-3e-05,0.0,1,20.0
1891,-1e-05,-1e-05,6e-05,3e-05,7e-05,-2e-05,-3e-05,0.0,1,20.0
1892,-1e-05,-1e-05,6e-05,3e-05,7e-05,-2e-05,-3e-05,0.0,1,20.0
1893,-1e-05,-1e-05,6e-05,3e-05,7e-05,-2e-05,-3e-05,0.0,1,20.0
1894,-1e-05,-1e-05,6e-05,3e-05,7e-05,-2e-05,-3e-05,0.0,1,20.0
1895,-1e-05,-1e-05,6e-05,3e-05,7e-05,-2e-05,-3e-05,0.0,1,20.0
1896,-1e-05,-1e-05,6e-05,3e-05,7e-05,-2e-05,-3e-05,0.0,1,20.0
1897,-1e-05,-1e-05,6e-05,3e-05,7e-05,-2e-05,-3e-05,0.0,1,20.0
1898,-1e-05,-1e-05,6e-05,3e-05,7e-05,-2e-05,-3e-05,0.0,1,20.0
1899,-1e-05,-1e-05,6e-05,3e-05,7e-05,-2e-05,-3e-05,0.0,1,20.0
1900,-1e-05,-1e-05,6e-05,3e-05,7e-05,-2e-05,-3e-05,0.0,1,20.0
1901,-1e-05,-1e-05,6e-05,3e-05,7e-05,-2e-05,-3e-05,0.0,1,20.0
1902,-1e-05,-1e-05,6e-05,3e-05,7e-05,-2e-05,-3e-05,0.0,1,20.0
1903,-3e-05,-2e-05,-2e-05,2e-05,-2e-05,2e-05,-1e-05,-3e-05,1,20.0
1904,-3e-05,-2e-05,-2e-05,2e-05,-2e-05,2e-05,-1e-05,-3e-05,1,20.0
1905,-1e-05,-4e-05,-9e-05,-5e-05,3e-05,-8e-05,-1e-05,-1e-05,1,20.0
1906,-1e-05,-4e-05,-9e-05,-5e-05,3e-05,-8e-05,-1e-05,-1e-05,1,20.0
1907,-1e-05,-4e-05,-9e-05,-5e-05,3e-05,-8e-05,-1e-05,-1e-05,1,20.0
1908,-1e-05,-4e-05,-9e-05,-5e-05,3e-05,-8e-05,-1e-05,-1e-05,1,20.0
1909,-1e-05,-4e-05,-9e-05,-5e-05,3e-05,-8e-05,-1e-05,-1e-05,1,20.0
1910,-1e-05,-4e-05,-9e-05,-5e-05,3e-05,-8e-05,-1e-05,-1e-05,1,20.0
1911,-1e-05,-4e-05,-9e-05,-5e-05,3e-05,-8e-05,-1e-05,-1e-05,1,20.0
1912,-1e-05,-4e-05,-9e-05,-5e-05,3e-05,-8e-05,-1e-05,-1e-05,1,20.0
1913,-1e-05,-4e-05,-9e-05,-5e-05,3e-05,-8e-05,-1e-05,-1e-05,1,20.0
1914,-1e-05,-4e-05,-9e-05,-5e-05,3e-05,-8e-05,-1e-05,-1e-05,1,20.0
1915,-1e-05,-4e-05,-9e-05,-5e-05,3e-05,-8e-05,-1e-05,-1e-05,1,20.0
1916,-1e-05,-4e-05,-9e-05,-5e-05,3e-05,-8e-05,-1e-05,-1e-05,1,20.0
1917,0.0,1e-05,-1e-05,-0.0001,-3e-05,-0.00014,1e-05,-1e-05,1,20.0
1918,0.0,1e-05,-1e-05,-0.0001,-3e-05,-0.00014,1e-05,-1e-05,1,20.0
1920,0.0,1e-05,-1e-05,-0.0001,-3e-05,-0.00014,1e-05,-1e-05,1,20.0
1921,0.0,1e-05,-1e-05,-0.0001,-3e-05,-0.00014,1e-05,-1e-05,1,20.0
1922,0.0,1e-05,-1e-05,-0.0001,-3e-05,-0.00014,1e-05,-1e-05,1,20.0
1923,0.0,1e-05,-1e-05,-0.0001,-3e-05,-0.00014,1e-05,-1e-05,1,20.0
1924,2e-05,4e-05,8e-05,5e-05,-4e-05,8e-05,-2e-05,1e-05,1,20.0
1925,2e-05,4e-05,8e-05,5e-05,-4e-05,8e-05,-2e-05,1e-05,1,20.0
1926,2e-05,4e-05,8e-05,5e-05,-4e-05,8e-05,-2e-05,1e-05,1,20.0
1927,2e-05,4e-05,8e-05,5e-05,-4e-05,8e-05,-2e-05,1e-05,1,20.0
1928,2e-05,4e-05,8e-05,5e-05,-4e-05,8e-05,-2e-05,1e-05,1,20.0
1929,2e-05,4e-05,8e-05,5e-05,-4e-05,8e-05,-2e-05,1e-05,1,20.0
1930,2e-05,4e-05,8e-05,5e-05,-4e-05,8e-05,-2e-05,1e-05,1,20.0
1931,2e-05,4e-05,8e-05,5e-05,-4e-05,8e-05,-2e-05,1e-05,1,20.0
1932,2e-05,4e-05,8e-05,5e-05,-4e-05,8e-05,-2e-05,1e-05,1,20.0
1933,2e-05,4e-05,8e-05,5e-05,-4e-05,8e-05,-2e-05,1e-05,1,20.0
1934,2e-05,4e-05,8e-05,5e-05,-4e-05,8e-05,-2e-05,1e-05,1,20.0
1935,2e-05,4e-05,8e-05,5e-05,-4e-05,8e-05,-2e-05,1e-05,1,20.0
1936,2e-05,4e-05,8e-05,5e-05,-4e-05,8e-05,-2e-05,1e-05,1,20.0
1938,2e-05,4e-05,8e-05,5e-05,-4e-05,8e-05,-2e-05,1e-05,1,20.0
1939,2e-05,4e-05,8e-05,5e-05,-4e-05,8e-05,-2e-05,1e-05,1,20.0
1940,-4e-05,-3e-05,-7e-05,-0.00013,-0.00012,3e-05,-7e-05,3e-05,1,20.0
1941,-2e-05,-5e-05,-8e-05,0.0,1e-05,-0.00017,-2e-05,-0.00011,1,20.0
1942,2e-05,7e-05,0.00015,0.00021,2e-05,5e-05,3e-05,-0.00014,1,20.0
1943,2e-05,7e-05,0.00015,0.00021,2e-05,5e-05,3e-05,-0.00014,1,20.0
1944,2e-05,7e-05,0.00015,0.00021,2e-05,5e-05,3e-05,-0.00014,1,20.0
1945,2e-05,7e-05,0.00015,0.00021,2e-05,5e-05,3e-05,-0.00014,1,20.0
1946,2e-05,7e-05,0.00015,0.00021,2e-05,5e-05,3e-05,-0.00014,1,20.0
1947,2e-05,7e-05,0.00015,0.00021,2e-05,5e-05,3e-05,-0.00014,1,20.0
1948,2e-05,7e-05,0.00015,0.00021,2e-05,5e-05,3e-05,-0.00014,1,20.0
1949,2e-05,7e-05,0.00015,0.00021,2e-05,5e-05,3e-05,-0.00014,1,20.0
1950,2e-05,7e-05,0.00015,0.00021,2e-05,5e-05,3e-05,-0.00014,1,20.0
1951,2e-05,7e-05,0.00015,0.00021,2e-05,5e-05,3e-05,-0.00014,1,20.0
1952,2e-05,7e-05,0.00015,0.00021,2e-05,5e-05,3e-05,-0.00014,1,20.0
1953,2e-05,7e-05,0.00015,0.00021,2e-05,5e-05,3e-05,-0.00014,1,20.0
1954,2e-05,7e-05,0.00015,0.00021,2e-05,5e-05,3e-05,-0.00014,1,20.0
1955,2e-05,7e-05,0.00015,0.00021,2e-05,5e-05,3e-05,-0.00014,1,20.0
1956,2e-05,7e-05,0.00015,0.00021,2e-05,5e-05,3e-05,-0.00014,1,20.0
1957,2e-05,7e-05,0.00015,0.00021,2e-05,5e-05,3e-05,-0.00014,1,20.0
1958,2e-05,7e-05,0.00015,0.00021,2e-05,5e-05,3e-05,-0.00014,1,20.0
1959,2e-05,7e-05,0.00015,0.00021,2e-05,5e-05,3e-05,-0.00014,1,20.0
1960,2e-05,7e-05,0.00015,0.00021,2e-05,5e-05,3e-05,-0.00014,1,20.0
1961,2e-05,7e-05,0.00015,0.00021,2e-05,5e-05,3e-05,-0.00014,1,20.0
1962,2e-05,7e-05,0.00015,0.00021,2e-05,5e-05,3e-05,-0.00014,1,20.0
1963,-4e-05,0.0,-6e-05,-4e-05,-9e-05,-2e-05,0.0,6e-05,1,20.0
1964,-4e-05,0.0,-6e-05,-4e-05,-9e-05,-2e-05,0.0,6e-05,1,20.0
1965,-2e-05,-4e-05,-4e-05,2e-05,9e-05,1e-05,-3e-05,-3e-05,1,20.0
1966,-2e-05,-4e-05,-4e-05,2e-05,9e-05,1e-05,-3e-05,-3e-05,1,20.0
1967,-2e-05,-4e-05,-4e-05,2e-05,9e-05,1e-05,-3e-05,-3e-05,1,20.0
1968,-2e-05,-4e-05,-4e-05,2e-05,9e-05,1e-05,-3e-05,-3e-05,1,20.0
1969,-2e-05,-4e-05,-4e-05,2e-05,9e-05,1e-05,-3e-05,-3e-05,1,20.0
1970,-2e-05,-4e-05,-4e-05,2e-05,9e-05,1e-05,-3e-05,-3e-05,1,20.0
1971,-2e-05,-4e-05,-4e-05,2e-05,9e-05,1e-05,-3e-05,-3e-05,1,20.0
1972,-2e-05,-4e-05,-4e-05,2e-05,9e-05,1e-05,-3e-05,-3e-05,1,20.0
1973,-2e-05,-4e-05,-4e-05,2e-05,9e-05,1e-05,-3e-05,-3e-05,1,20.0
1974,-2e-05,-4e-05,-4e-05,2e-05,9e-05,1e-05,-3e-05,-3e-05,1,20.0
1975,-2e-05,-4e-05,-4e-05,2e-05,9e-05,1e-05,-3e-05,-3e-05,1,20.0
1976,-2e-05,-4e-05,-4e-05,2e-05,9e-05,1e-05,-3e-05,-3e-05,1,20.0
1977,-1e-05,-1e-05,-1e-05,6e-05,0.00011,5e-05,-1e-05,1e-05,1,20.0
1978,-1e-05,-1e-05,-1e-05,6e-05,0.00011,5e-05,-1e-05,1e-05,1,20.0
1979,-1e-05,-1e-05,-1e-05,6e-05,0.00011,5e-05,-1e-05,1e-05,1,20.0
1980,-1e-05,-1e-05,-1e-05,6e-05,0.00011,5e-05,-1e-05,1e-05,1,20.0
1981,-1e-05,-1e-05,-1e-05,6e-05,0.00011,5e-05,-1e-05,1e-05,1,20.0
1982,-1e-05,-1e-05,-1e-05,6e-05,0.00011,5e-05,-1e-05,1e-05,1,20.0
1983,-1e-05,-1e-05,-1e-05,6e-05,0.00011,5e-05,-1e-05,1e-05,1,20.0
1984,-3e-05,-2e-05,-3e-05,-9e-05,5e-05,0.0,0.0,4e-05,1,20.0
1985,-3e-05,-2e-05,-3e-05,-9e-05,5e-05,0.0,0.0,4e-05,1,20.0
1986,-3e-05,-2e-05,-3e-05,-9e-05,5e-05,0.0,0.0,4e-05,1,20.0
1988,-3e-05,-2e-05,-3e-05,-9e-05,5e-05,0.0,0.0,4e-05,1,20.0
1989,-3e-05,-2e-05,-3e-05,-9e-05,5e-05,0.0,0.0,4e-05,1,20.0
1990,-3e-05,-2e-05,-3e-05,-9e-05,5e-05,0.0,0.0,4e-05,1,20.0
1991,-3e-05,-2e-05,-3e-05,-9e-05,5e-05,0.0,0.0,4e-05,1,20.0
1992,-3e-05,-2e-05,-3e-05,-9e-05,5e-05,0.0,0.0,4e-05,1,20.0
1993,-3e-05,-2e-05,-3e-05,-9e-05,5e-05,0.0,0.0,4e-05,1,20.0
1994,-3e-05,-2e-05,-3e-05,-9e-05,5e-05,0.0,0.0,4e-05,1,20.0
1995,-3e-05,-2e-05,-3e-05,-9e-05,5e-05,0.0,0.0,4e-05,1,20.0
1996,-3e-05,-2e-05,-3e-05,-9e-05,5e-05,0.0,0.0,4e-05,1,20.0
1997,-3e-05,-2e-05,-3e-05,-9e-05,5e-05,0.0,0.0,4e-05,1,20.0
1998,-3e-05,-2e-05,-3e-05,-9e-05,5e-05,0.0,0.0,4e-05,1,20.0
1999,-3e-05,-2e-05,-3e-05,-9e-05,5e-05,0.0,0.0,4e-05,1,20.0
2000,3e-05,0.0,4e-05,2e-05,-0.0001,6e-05,1e-05,-3e-05,1,20.0
2001,0.0,2e-05,6e-05,0.00012,0.00017,-2e-05,-3e-05,0.0,1,20.0
2002,-4e-05,-7e-05,-0.00011,-8e-05,2e-05,-2e-05,-1e-05,-1e-05,1,20.0
2003,-4e-05,-7e-05,-0.00011,-8e-05,2e-05,-2e-05,-1e-05,-1e-05,1,20.0
2004,-4e-05,-7e-05,-0.00011,-8e-05,2e-05,-2e-05,-1e-05,-1e-05,1,20.0
2005,-4e-05,-7e-05,-0.00011,-8e-05,2e-05,-2e-05,-1e-05,-1e-05,1,20.0
2006,-4e-05,-7e-05,-0.00011,-8e-05,2e-05,-2e-05,-1e-05,-1e-05,1,20.0
2007,-4e-05,-7e-05,-0.00011,-8e-05,2e-05,-2e-05,-1e-05,-1e-05,1,20.0
2008,-4e-05,-7e-05,-0.00011,-8e-05,2e-05,-2e-05,-1e-05,-1e-05,1,20.0
2009,-4e-05,-7e-05,-0.00011,-8e-05,2e-05,-2e-05,-1e-05,-1e-05,1,20.0
2010,-4e-05,-7e-05,-0.00011,-8e-05,2e-05,-2e-05,-1e-05,-1e-05,1,20.0
2011,-4e-05,-7e-05,-0.00011,-8e-05,2e-05,-2e-05,-1e-05,-1e-05,1,20.0
2012,-4e-05,-7e-05,-0.00011,-8e-05,2e-05,-2e-05,-1e-05,-1e-05,1,20.0
2013,-4e-05,-7e-05,-0.00011,-8e-05,2e-05,-2e-05,-1e-05,-1e-05,1,20.0
2014,-4e-05,-7e-05,-0.00011,-8e-05,2e-05,-2e-05,-1e-05,-1e-05,1,20.0
2015,-4e-05,-7e-05,-0.00011,-8e-05,2e-05,-2e-05,-1e-05,-1e-05,1,20.0
2016,-4e-05,-7e-05,-0.00011,-8e-05,2e-05,-2e-05,-1e-05,-1e-05,1,20.0
2017,-4e-05,-7e-05,-0.00011,-8e-05,2e-05,-2e-05,-1e-05,-1e-05,1,20.0
2018,-4e-05,-7e-05,-0.00011,-8e-05,2e-05,-2e-05,-1e-05,-1e-05,1,20.0
2019,-4e-05,-7e-05,-0.00011,-8e-05,2e-05,-2e-05,-1e-05,-1e-05,1,20.0
2020,-4e-05,-7e-05,-0.00011,-8e-05,2e-05,-2e-05,-1e-05,-1e-05,1,20.0
2021,-4e-05,-7e-05,-0.00011,-8e-05,2e-05,-2e-05,-1e-05,-1e-05,1,20.0
2022,-4e-05,-7e-05,-0.00011,-8e-05,2e-05,-2e-05,-1e-05,-1e-05,1,20.0
2023,0.0,-2e-05,1e-05,-2e-05,-0.00013,-0.00016,4e-05,1e-05,1,20.0
2024,0.0,-2e-05,1e-05,-2e-05,-0.00013,-0.00016,4e-05,1e-05,1,20.0
2025,1e-05,1e-05,-4e-05,-2e-05,3e-05,0.0,6e-05,4e-05,1,20.0
2026,1e-05,1e-05,-4e-05,-2e-05,3e-05,0.0,6e-05,4e-05,1,20.0
2027,1e-05,1e-05,-4e-05,-2e-05,3e-05,0.0,6e-05,4e-05,1,20.0
2028,1e-05,1e-05,-4e-05,-2e-05,3e-05,0.0,6e-05,4e-05,1,20.0
2029,1e-05,1e-05,-4e-05,-2e-05,3e-05,0.0,6e-05,4e-05,1,20.0
2030,1e-05,1e-05,-4e-05,-2e-05,3e-05,0.0,6e-05,4e-05,1,20.0
2031,1e-05,1e-05,-4e-05,-2e-05,3e-05,0.0,6e-05,4e-05,1,20.0
2032,1e-05,1e-05,-4e-05,-2e-05,3e-05,0.0,6e-05,4e-05,1,20.0
2033,1e-05,1e-05,-4e-05,-2e-05,3e-05,0.0,6e-05,4e-05,1,20.0
2034,1e-05,1e-05,-4e-05,-2e-05,3e-05,0.0,6e-05,4e-05,1,20.0
2035,1e-05,1e-05,-4e-05,-2e-05,3e-05,0.0,6e-05,4e-05,1,20.0
2036,1e-05,1e-05,-4e-05,-2e-05,3e-05,0.0,6e-05,4e-05,1,20.0
2039,1e-05,-1e-05,-3e-05,-5e-05,-0.0001,-0.00057,-1e-05,2e-05,1,20.0
2040,1e-05,-1e-05,-3e-05,-5e-05,-0.0001,-0.00057,-1e-05,2e-05,1,20.0
2041,1e-05,-1e-05,-3e-05,-5e-05,-0.0001,-0.00057,-1e-05,2e-05,1,20.0
2042,1e-05,-1e-05,-3e-05,-5e-05,-0.0001,-0.00057,-1e-05,2e-05,1,20.0
2043,1e-05,-1e-05,-3e-05,-5e-05,-0.0001,-0.00057,-1e-05,2e-05,1,20.0
2044,-1e-05,1e-05,3e-05,-5e-05,-3e-05,-4e-05,-4e-05,2e-05,1,20.0
2045,-1e-05,1e-05,3e-05,-5e-05,-3e-05,-4e-05,-4e-05,2e-05,1,20.0
2046,-1e-05,1e-05,3e-05,-5e-05,-3e-05,-4e-05,-4e-05,2e-05,1,20.0
2047,-1e-05,1e-05,3e-05,-5e-05,-3e-05,-4e-05,-4e-05,2e-05,1,20.0
2048,-1e-05,1e-05,3e-05,-5e-05,-3e-05,-4e-05,-4e-05,2e-05,1,20.0
2049,-1e-05,1e-05,3e-05,-5e-05,-3e-05,-4e-05,-4e-05,2e-05,1,20.0
2050,-1e-05,1e-05,3e-05,-5e-05,-3e-05,-4e-05,-4e-05,2e-05,1,20.0
2051,-1e-05,1e-05,3e-05,-5e-05,-3e-05,-4e-05,-4e-05,2e-05,1,20.0
2052,-1e-05,1e-05,3e-05,-5e-05,-3e-05,-4e-05,-4e-05,2e-05,1,20.0
2053,-1e-05,1e-05,3e-05,-5e-05,-3e-05,-4e-05,-4e-05,2e-05,1,20.0
2054,-1e-05,1e-05,3e-05,-5e-05,-3e-05,-4e-05,-4e-05,2e-05,1,20.0
2055,-1e-05,1e-05,3e-05,-5e-05,-3e-05,-4e-05,-4e-05,2e-05,1,20.0
2056,-1e-05,1e-05,3e-05,-5e-05,-3e-05,-4e-05,-4e-05,2e-05,1,20.0
2057,-1e-05,1e-05,3e-05,-5e-05,-3e-05,-4e-05,-4e-05,2e-05,1,20.0
2058,-1e-05,1e-05,3e-05,-5e-05,-3e-05,-4e-05,-4e-05,2e-05,1,20.0
2059,-1e-05,1e-05,3e-05,-5e-05,-3e-05,-4e-05,-4e-05,2e-05,1,20.0
2060,-1e-05,1e-05,3e-05,-5e-05,-3e-05,-4e-05,-4e-05,2e-05,1,20.0
2061,-3e-05,-3e-05,-8e-05,-3e-05,-0.00011,0.0002,0.0,0.0,1,20.0
2062,2e-05,0.0,0.0,7e-05,2e-05,-5e-05,-2e-05,1e-05,1,20.0
2063,2e-05,0.0,0.0,7e-05,2e-05,-5e-05,-2e-05,1e-05,1,20.0
2064,2e-05,0.0,0.0,7e-05,2e-05,-5e-05,-2e-05,1e-05,1,20.0
2065,2e-05,0.0,0.0,7e-05,2e-05,-5e-05,-2e-05,1e-05,1,20.0
2066,2e-05,0.0,0.0,7e-05,2e-05,-5e-05,-2e-05,1e-05,1,20.0
2067,2e-05,0.0,0.0,7e-05,2e-05,-5e-05,-2e-05,1e-05,1,20.0
2068,2e-05,0.0,0.0,7e-05,2e-05,-5e-05,-2e-05,1e-05,1,20.0
2069,2e-05,0.0,0.0,7e-05,2e-05,-5e-05,-2e-05,1e-05,1,20.0
2070,2e-05,0.0,0.0,7e-05,2e-05,-5e-05,-2e-05,1e-05,1,20.0
2071,2e-05,0.0,0.0,7e-05,2e-05,-5e-05,-2e-05,1e-05,1,20.0
2072,2e-05,0.0,0.0,7e-05,2e-05,-5e-05,-2e-05,1e-05,1,20.0
2073,2e-05,0.0,0.0,7e-05,2e-05,-5e-05,-2e-05,1e-05,1,20.0
2074,2e-05,0.0,0.0,7e-05,2e-05,-5e-05,-2e-05,1e-05,1,20.0
2075,2e-05,0.0,0.0,7e-05,2e-05,-5e-05,-2e-05,1e-05,1,20.0
2076,2e-05,0.0,0.0,7e-05,2e-05,-5e-05,-2e-05,1e-05,1,20.0
2077,2e-05,0.0,0.0,7e-05,2e-05,-5e-05,-2e-05,1e-05,1,20.0
2078,2e-05,0.0,0.0,7e-05,2e-05,-5e-05,-2e-05,1e-05,1,20.0
2079,2e-05,0.0,0.0,7e-05,2e-05,-5e-05,-2e-05,1e-05,1,20.0
2080,2e-05,0.0,0.0,7e-05,2e-05,-5e-05,-2e-05,1e-05,1,20.0
2081,2e-05,0.0,0.0,7e-05,2e-05,-5e-05,-2e-05,1e-05,1,20.0
2082,2e-05,0.0,0.0,7e-05,2e-05,-5e-05,-2e-05,1e-05,1,20.0
2083,-3e-05,-2e-05,-3e-05,1e-05,5e-05,0.00013,-8e-05,-0.00011,1,20.0
2084,-3e-05,-2e-05,-3e-05,1e-05,5e-05,0.00013,-8e-05,-0.00011,1,20.0
2085,1e-05,0.0,-1e-05,-0.00012,-8e-05,9e-05,-1e-05,-1e-05,1,20.0
2086,1e-05,0.0,-1e-05,-0.00012,-8e-05,9e-05,-1e-05,-1e-05,1,20.0
2088,1e-05,0.0,-1e-05,-0.00012,-8e-05,9e-05,-1e-05,-1e-05,1,20.0
2089,1e-05,0.0,-1e-05,-0.00012,-8e-05,9e-05,-1e-05,-1e-05,1,20.0
2090,1e-05,0.0,-1e-05,-0.00012,-8e-05,9e-05,-1e-05,-1e-05,1,20.0
2091,1e-05,0.0,-1e-05,-0.00012,-8e-05,9e-05,-1e-05,-1e-05,1,20.0
2092,1e-05,0.0,-1e-05,-0.00012,-8e-05,9e-05,-1e-05,-1e-05,1,20.0
2093,1e-05,0.0,-1e-05,-0.00012,-8e-05,9e-05,-1e-05,-1e-05,1,20.0
2094,1e-05,0.0,-1e-05,-0.00012,-8e-05,9e-05,-1e-05,-1e-05,1,20.0
2095,1e-05,0.0,-1e-05,-0.00012,-8e-05,9e-05,-1e-05,-1e-05,1,20.0
2096,1e-05,0.0,-1e-05,-0.00012,-8e-05,9e-05,-1e-05,-1e-05,1,20.0
2097,1e-05,0.0,-1e-05,-0.00012,-8e-05,9e-05,-1e-05,-1e-05,1,20.0
2098,1e-05,0.0,7e-05,0.00011,-0.00022,0.0001,1e-05,1e-05,1,20.0
2099,1e-05,0.0,7e-05,0.00011,-0.00022,0.0001,1e-05,1e-05,1,20.0
2100,1e-05,0.0,7e-05,0.00011,-0.00022,0.0001,1e-05,1e-05,1,20.0
2101,1e-05,0.0,7e-05,0.00011,-0.00022,0.0001,1e-05,1e-05,1,20.0
2102,1e-05,0.0,7e-05,0.00011,-0.00022,0.0001,1e-05,1e-05,1,20.0
2103,1e-05,0.0,7e-05,0.00011,-0.00022,0.0001,1e-05,1e-05,1,20.0
2104,0.0,-1e-05,0.0,1e-05,-6e-05,-3e-05,-1e-05,1e-05,1,20.0
2105,0.0,-1e-05,0.0,1e-05,-6e-05,-3e-05,-1e-05,1e-05,1,20.0
2106,0.0,-1e-05,0.0,1e-05,-6e-05,-3e-05,-1e-05,1e-05,1,20.0
2107,0.0,-1e-05,0.0,1e-05,-6e-05,-3e-05,-1e-05,1e-05,1,20.0
2108,0.0,-1e-05,0.0,1e-05,-6e-05,-3e-05,-1e-05,1e-05,1,20.0
2109,0.0,-1e-05,0.0,1e-05,-6e-05,-3e-05,-1e-05,1e-05,1,20.0
2110,0.0,-1e-05,0.0,1e-05,-6e-05,-3e-05,-1e-05,1e-05,1,20.0
2111,0.0,-1e-05,0.0,1e-05,-6e-05,-3e-05,-1e-05,1e-05,1,20.0
2112,0.0,-1e-05,0.0,1e-05,-6e-05,-3e-05,-1e-05,1e-05,1,20.0
2113,0.0,-1e-05,0.0,1e-05,-6e-05,-3e-05,-1e-05,1e-05,1,20.0
2114,0.0,-1e-05,0.0,1e-05,-6e-05,-3e-05,-1e-05,1e-05,1,20.0
2115,0.0,-1e-05,0.0,1e-05,-6e-05,-3e-05,-1e-05,1e-05,1,20.0
2116,0.0,-1e-05,0.0,1e-05,-6e-05,-3e-05,-1e-05,1e-05,1,20.0
2117,0.0,-1e-05,0.0,1e-05,-6e-05,-3e-05,-1e-05,1e-05,1,20.0
2118,0.0,-1e-05,0.0,1e-05,-6e-05,-3e-05,-1e-05,1e-05,1,20.0
2119,0.0,-1e-05,0.0,1e-05,-6e-05,-3e-05,-1e-05,1e-05,1,20.0
2120,0.0,-1e-05,0.0,1e-05,-6e-05,-3e-05,-1e-05,1e-05,1,20.0
2121,1e-05,-2e-05,-4e-05,2e-05,0.00029,9e-05,-2e-05,4e-05,1,20.0
2122,-6e-05,-4e-05,0.0,5e-05,0.00022,-2e-05,-3e-05,-5e-05,1,20.0
2123,-6e-05,-4e-05,0.0,5e-05,0.00022,-2e-05,-3e-05,-5e-05,1,20.0
2124,-6e-05,-4e-05,0.0,5e-05,0.00022,-2e-05,-3e-05,-5e-05,1,20.0
2125,-6e-05,-4e-05,0.0,5e-05,0.00022,-2e-05,-3e-05,-5e-05,1,20.0
2126,-6e-05,-4e-05,0.0,5e-05,0.00022,-2e-05,-3e-05,-5e-05,1,20.0
2127,-6e-05,-4e-05,0.0,5e-05,0.00022,-2e-05,-3e-05,-5e-05,1,20.0
2128,-6e-05,-4e-05,0.0,5e-05,0.00022,-2e-05,-3e-05,-5e-05,1,20.0
2129,-6e-05,-4e-05,0.0,5e-05,0.00022,-2e-05,-3e-05,-5e-05,1,20.0
2130,-6e-05,-4e-05,0.0,5e-05,0.00022,-2e-05,-3e-05,-5e-05,1,20.0
2131,-6e-05,-4e-05,0.0,5e-05,0.00022,-2e-05,-3e-05,-5e-05,1,20.0
2132,-6e-05,-4e-05,0.0,5e-05,0.00022,-2e-05,-3e-05,-5e-05,1,20.0
2133,-6e-05,-4e-05,0.0,5e-05,0.00022,-2e-05,-3e-05,-5e-05,1,20.0
2134,-6e-05,-4e-05,0.0,5e-05,0.00022,-2e-05,-3e-05,-5e-05,1,20.0
2135,-6e-05,-4e-05,0.0,5e-05,0.00022,-2e-05,-3e-05,-5e-05,1,20.0
2136,-6e-05,-4e-05,0.0,5e-05,0.00022,-2e-05,-3e-05,-5e-05,1,20.0
2138,-6e-05,-4e-05,0.0,5e-05,0.00022,-2e-05,-3e-05,-5e-05,1,20.0
2139,-6e-05,-4e-05,0.0,5e-05,0.00022,-2e-05,-3e-05,-5e-05,1,20.0
2140,-6e-05,-4e-05,0.0,5e-05,0.00022,-2e-05,-3e-05,-5e-05,1,20.0
2141,-6e-05,-4e-05,0.0,5e-05,0.00022,-2e-05,-3e-05,-5e-05,1,20.0
2142,-6e-05,-4e-05,0.0,5e-05,0.00022,-2e-05,-3e-05,-5e-05,1,20.0
2143,-1e-05,2e-05,-1e-05,-0.00011,-7e-05,6e-05,-4e-05,-1e-05,1,20.0
2144,-1e-05,2e-05,-1e-05,-0.00011,-7e-05,6e-05,-4e-05,-1e-05,1,20.0
2145,-3e-05,0.0,-5e-05,2e-05,0.00014,-1e-05,-2e-05,4e-05,1,20.0
2146,-3e-05,0.0,-5e-05,2e-05,0.00014,-1e-05,-2e-05,4e-05,1,20.0
2147,-3e-05,0.0,-5e-05,2e-05,0.00014,-1e-05,-2e-05,4e-05,1,20.0
2148,-3e-05,0.0,-5e-05,2e-05,0.00014,-1e-05,-2e-05,4e-05,1,20.0
2149,-3e-05,0.0,-5e-05,2e-05,0.00014,-1e-05,-2e-05,4e-05,1,20.0
2150,-3e-05,0.0,-5e-05,2e-05,0.00014,-1e-05,-2e-05,4e-05,1,20.0
2151,-3e-05,0.0,-5e-05,2e-05,0.00014,-1e-05,-2e-05,4e-05,1,20.0
2152,-3e-05,0.0,-5e-05,2e-05,0.00014,-1e-05,-2e-05,4e-05,1,20.0
2153,-3e-05,0.0,-5e-05,2e-05,0.00014,-1e-05,-2e-05,4e-05,1,20.0
2155,-3e-05,0.0,-5e-05,2e-05,0.00014,-1e-05,-2e-05,4e-05,1,20.0
2156,-3e-05,0.0,-5e-05,2e-05,0.00014,-1e-05,-2e-05,4e-05,1,20.0
2157,-5e-05,-3e-05,3e-05,-1e-05,-9e-05,-0.0004,5e-05,1e-05,1,20.0
2158,-5e-05,-3e-05,3e-05,-1e-05,-9e-05,-0.0004,5e-05,1e-05,1,20.0
2159,-5e-05,-3e-05,3e-05,-1e-05,-9e-05,-0.0004,5e-05,1e-05,1,20.0
2160,-5e-05,-3e-05,3e-05,-1e-05,-9e-05,-0.0004,5e-05,1e-05,1,20.0
2161,-5e-05,-3e-05,3e-05,-1e-05,-9e-05,-0.0004,5e-05,1e-05,1,20.0
2162,-5e-05,-3e-05,3e-05,-1e-05,-9e-05,-0.0004,5e-05,1e-05,1,20.0
2163,-5e-05,-3e-05,3e-05,-1e-05,-9e-05,-0.0004,5e-05,1e-05,1,20.0
2164,-5e-05,-3e-05,3e-05,-1e-05,-9e-05,-0.0004,5e-05,1e-05,1,20.0
2165,-5e-05,-3e-05,3e-05,-1e-05,-9e-05,-0.0004,5e-05,1e-05,1,20.0
2166,1e-05,1e-05,-3e-05,-2e-05,-0.00015,-7e-05,-4e-05,2e-05,1,20.0
2167,1e-05,1e-05,-3e-05,-2e-05,-0.00015,-7e-05,-4e-05,2e-05,1,20.0
2168,1e-05,1e-05,-3e-05,-2e-05,-0.00015,-7e-05,-4e-05,2e-05,1,20.0
2169,1e-05,1e-05,-3e-05,-2e-05,-0.00015,-7e-05,-4e-05,2e-05,1,20.0
2170,1e-05,1e-05,-3e-05,-2e-05,-0.00015,-7e-05,-4e-05,2e-05,1,20.0
2171,1e-05,1e-05,-3e-05,-2e-05,-0.00015,-7e-05,-4e-05,2e-05,1,20.0
2172,1e-05,1e-05,-3e-05,-2e-05,-0.00015,-7e-05,-4e-05,2e-05,1,20.0
2173,1e-05,1e-05,-3e-05,-2e-05,-0.00015,-7e-05,-4e-05,2e-05,1,20.0
2174,1e-05,1e-05,-3e-05,-2e-05,-0.00015,-7e-05,-4e-05,2e-05,1,20.0
2175,1e-05,1e-05,-3e-05,-2e-05,-0.00015,-7e-05,-4e-05,2e-05,1,20.0
2176,1e-05,1e-05,-3e-05,-2e-05,-0.00015,-7e-05,-4e-05,2e-05,1,20.0
2177,1e-05,1e-05,-3e-05,-2e-05,-0.00015,-7e-05,-4e-05,2e-05,1,20.0
2178,1e-05,1e-05,-3e-05,-2e-05,-0.00015,-7e-05,-4e-05,2e-05,1,20.0
2179,1e-05,1e-05,-3e-05,-2e-05,-0.00015,-7e-05,-4e-05,2e-05,1,20.0
2180,1e-05,1e-05,-3e-05,-2e-05,-0.00015,-7e-05,-4e-05,2e-05,1,20.0
2181,2e-05,2e-05,7e-05,3e-05,0.0001,0.00012,-2e-05,1e-05,1,20.0
2182,-1e-05,0.0,1e-05,0.0001,5e-05,-4e-05,4e-05,1e-05,1,20.0
2183,-1e-05,0.0,1e-05,0.0001,5e-05,-4e-05,4e-05,1e-05,1,20.0
2184,-1e-05,0.0,1e-05,0.0001,5e-05,-4e-05,4e-05,1e-05,1,20.0
2185,-1e-05,0.0,1e-05,0.0001,5e-05,-4e-05,4e-05,1e-05,1,20.0
2186,-1e-05,0.0,1e-05,0.0001,5e-05,-4e-05,4e-05,1e-05,1,20.0
2188,-1e-05,0.0,1e-05,0.0001,5e-05,-4e-05,4e-05,1e-05,1,20.0
2189,-1e-05,0.0,1e-05,0.0001,5e-05,-4e-05,4e-05,1e-05,1,20.0
2190,-1e-05,0.0,1e-05,0.0001,5e-05,-4e-05,4e-05,1e-05,1,20.0
2191,-1e-05,0.0,1e-05,0.0001,5e-05,-4e-05,4e-05,1e-05,1,20.0
2192,-1e-05,0.0,1e-05,0.0001,5e-05,-4e-05,4e-05,1e-05,1,20.0
2193,-1e-05,0.0,1e-05,0.0001,5e-05,-4e-05,4e-05,1e-05,1,20.0
2194,-1e-05,0.0,1e-05,0.0001,5e-05,-4e-05,4e-05,1e-05,1,20.0
2195,-1e-05,0.0,1e-05,0.0001,5e-05,-4e-05,4e-05,1e-05,1,20.0
2196,-1e-05,0.0,1e-05,0.0001,5e-05,-4e-05,4e-05,1e-05,1,20.0
2197,-1e-05,0.0,1e-05,0.0001,5e-05,-4e-05,4e-05,1e-05,1,20.0
2198,-1e-05,0.0,1e-05,0.0001,5e-05,-4e-05,4e-05,1e-05,1,20.0
2199,-1e-05,0.0,1e-05,0.0001,5e-05,-4e-05,4e-05,1e-05,1,20.0
2200,-1e-05,0.0,1e-05,0.0001,5e-05,-4e-05,4e-05,1e-05,1,20.0
2202,-1e-05,0.0,1e-05,0.0001,5e-05,-4e-05,4e-05,1e-05,1,20.0
2203,0.0,-2e-05,-5e-05,-6e-05,0.00012,4e-05,-1e-05,-1e-05,1,20.0
2204,0.0,-2e-05,-5e-05,-6e-05,0.00012,4e-05,-1e-05,-1e-05,1,20.0
2205,0.0,-1e-05,-2e-05,-9e-05,2e-05,7e-05,-4e-05,-3e-05,1,20.0
2206,0.0,-1e-05,-2e-05,-9e-05,2e-05,7e-05,-4e-05,-3e-05,1,20.0
2207,0.0,-1e-05,-2e-05,-9e-05,2e-05,7e-05,-4e-05,-3e-05,1,20.0
2208,0.0,-1e-05,-2e-05,-9e-05,2e-05,7e-05,-4e-05,-3e-05,1,20.0
2209,0.0,-1e-05,-2e-05,-9e-05,2e-05,7e-05,-4e-05,-3e-05,1,20.0
2210,0.0,-1e-05,-2e-05,-9e-05,2e-05,7e-05,-4e-05,-3e-05,1,20.0
2211,0.0,-1e-05,-2e-05,-9e-05,2e-05,7e-05,-4e-05,-3e-05,1,20.0
2212,0.0,-1e-05,-2e-05,-9e-05,2e-05,7e-05,-4e-05,-3e-05,1,20.0
2213,0.0,-1e-05,-2e-05,-9e-05,2e-05,7e-05,-4e-05,-3e-05,1,20.0
2214,0.0,-1e-05,-2e-05,-9e-05,2e-05,7e-05,-4e-05,-3e-05,1,20.0
2215,0.0,-1e-05,-2e-05,-9e-05,2e-05,7e-05,-4e-05,-3e-05,1,20.0
2216,0.0,-1e-05,-2e-05,-9e-05,2e-05,7e-05,-4e-05,-3e-05,1,20.0
2217,-2e-05,-2e-05,-6e-05,-0.00015,-0.00024,4e-05,-2e-05,-3e-05,1,20.0
2218,-2e-05,-2e-05,-6e-05,-0.00015,-0.00024,4e-05,-2e-05,-3e-05,1,20.0
2219,-2e-05,-2e-05,-6e-05,-0.00015,-0.00024,4e-05,-2e-05,-3e-05,1,20.0
2220,-2e-05,-2e-05,-6e-05,-0.00015,-0.00024,4e-05,-2e-05,-3e-05,1,20.0
2221,-2e-05,-2e-05,-6e-05,-0.00015,-0.00024,4e-05,-2e-05,-3e-05,1,20.0
2222,-2e-05,-2e-05,-6e-05,-0.00015,-0.00024,4e-05,-2e-05,-3e-05,1,20.0
2223,-2e-05,-2e-05,-6e-05,-0.00015,-0.00024,4e-05,-2e-05,-3e-05,1,20.0
2224,-2e-05,-2e-05,-6e-05,-0.00015,-0.00024,4e-05,-2e-05,-3e-05,1,20.0
2225,-2e-05,-2e-05,-6e-05,-0.00015,-0.00024,4e-05,-2e-05,-3e-05,1,20.0
2226,-3e-05,-5e-05,-1e-05,-5e-05,-0.0001,-1e-05,-2e-05,-4e-05,1,20.0
2227,-3e-05,-5e-05,-1e-05,-5e-05,-0.0001,-1e-05,-2e-05,-4e-05,1,20.0
2228,-3e-05,-5e-05,-1e-05,-5e-05,-0.0001,-1e-05,-2e-05,-4e-05,1,20.0
2229,-3e-05,-5e-05,-1e-05,-5e-05,-0.0001,-1e-05,-2e-05,-4e-05,1,20.0
2230,-3e-05,-5e-05,-1e-05,-5e-05,-0.0001,-1e-05,-2e-05,-4e-05,1,20.0
2231,-3e-05,-5e-05,-1e-05,-5e-05,-0.0001,-1e-05,-2e-05,-4e-05,1,20.0
2232,-3e-05,-5e-05,-1e-05,-5e-05,-0.0001,-1e-05,-2e-05,-4e-05,1,20.0
2233,-3e-05,-5e-05,-1e-05,-5e-05,-0.0001,-1e-05,-2e-05,-4e-05,1,20.0
2234,-3e-05,-5e-05,-1e-05,-5e-05,-0.0001,-1e-05,-2e-05,-4e-05,1,20.0
2235,-3e-05,-5e-05,-1e-05,-5e-05,-0.0001,-1e-05,-2e-05,-4e-05,1,20.0
2236,-3e-05,-5e-05,-1e-05,-5e-05,-0.0001,-1e-05,-2e-05,-4e-05,1,20.0
2238,-3e-05,-5e-05,-1e-05,-5e-05,-0.0001,-1e-05,-2e-05,-4e-05,1,20.0
2239,-3e-05,-5e-05,-1e-05,-5e-05,-0.0001,-1e-05,-2e-05,-4e-05,1,20.0
2240,1e-05,3e-05,5e-05,6e-05,4e-05,6e-05,1e-05,-1e-05,1,20.0
2241,2e-05,1e-05,2e-05,1e-05,5e-05,7e-05,-2e-05,-5e-05,1,20.0
2242,1e-05,0.0,3e-05,9e-05,5e-05,-3e-05,-3e-05,-5e-05,1,20.0
2243,1e-05,0.0,3e-05,9e-05,5e-05,-3e-05,-3e-05,-5e-05,1,20.0
2244,1e-05,0.0,3e-05,9e-05,5e-05,-3e-05,-3e-05,-5e-05,1,20.0
2245,1e-05,0.0,3e-05,9e-05,5e-05,-3e-05,-3e-05,-5e-05,1,20.0
2246,1e-05,0.0,3e-05,9e-05,5e-05,-3e-05,-3e-05,-5e-05,1,20.0
2247,1e-05,0.0,3e-05,9e-05,5e-05,-3e-05,-3e-05,-5e-05,1,20.0
2248,1e-05,0.0,3e-05,9e-05,5e-05,-3e-05,-3e-05,-5e-05,1,20.0
2249,1e-05,0.0,3e-05,9e-05,5e-05,-3e-05,-3e-05,-5e-05,1,20.0
2250,1e-05,0.0,3e-05,9e-05,5e-05,-3e-05,-3e-05,-5e-05,1,20.0
2251,1e-05,0.0,3e-05,9e-05,5e-05,-3e-05,-3e-05,-5e-05,1,20.0
2252,1e-05,0.0,3e-05,9e-05,5e-05,-3e-05,-3e-05,-5e-05,1,20.0
2253,1e-05,0.0,3e-05,9e-05,5e-05,-3e-05,-3e-05,-5e-05,1,20.0
2254,1e-05,0.0,3e-05,9e-05,5e-05,-3e-05,-3e-05,-5e-05,1,20.0
2255,1e-05,0.0,3e-05,9e-05,5e-05,-3e-05,-3e-05,-5e-05,1,20.0
2256,1e-05,0.0,3e-05,9e-05,5e-05,-3e-05,-3e-05,-5e-05,1,20.0
2257,1e-05,0.0,3e-05,9e-05,5e-05,-3e-05,-3e-05,-5e-05,1,20.0
2258,1e-05,0.0,3e-05,9e-05,5e-05,-3e-05,-3e-05,-5e-05,1,20.0
2259,1e-05,0.0,3e-05,9e-05,5e-05,-3e-05,-3e-05,-5e-05,1,20.0
2260,1e-05,0.0,3e-05,9e-05,5e-05,-3e-05,-3e-05,-5e-05,1,20.0
2261,1e-05,0.0,3e-05,9e-05,5e-05,-3e-05,-3e-05,-5e-05,1,20.0
2262,1e-05,0.0,3e-05,9e-05,5e-05,-3e-05,-3e-05,-5e-05,1,20.0
2263,1e-05,0.0,3e-05,9e-05,5e-05,-3e-05,-3e-05,-5e-05,1,20.0
2264,0.0,1e-05,9e-05,-2e-05,0.0,1e-05,2e-05,-3e-05,1,20.0
2265,-2e-05,-5e-05,-0.00023,-0.00017,-3e-05,-4e-05,0.0,-2e-05,1,20.0
2266,-2e-05,-5e-05,-0.00023,-0.00017,-3e-05,-4e-05,0.0,-2e-05,1,20.0
2267,-2e-05,-5e-05,-0.00023,-0.00017,-3e-05,-4e-05,0.0,-2e-05,1,20.0
2268,-2e-05,-5e-05,-0.00023,-0.00017,-3e-05,-4e-05,0.0,-2e-05,1,20.0
2269,-2e-05,-5e-05,-0.00023,-0.00017,-3e-05,-4e-05,0.0,-2e-05,1,20.0
2270,-2e-05,-5e-05,-0.00023,-0.00017,-3e-05,-4e-05,0.0,-2e-05,1,20.0
2271,-2e-05,-5e-05,-0.00023,-0.00017,-3e-05,-4e-05,0.0,-2e-05,1,20.0
2272,-2e-05,-5e-05,-0.00023,-0.00017,-3e-05,-4e-05,0.0,-2e-05,1,20.0
2273,-2e-05,-5e-05,-0.00023,-0.00017,-3e-05,-4e-05,0.0,-2e-05,1,20.0
2274,-2e-05,-5e-05,-0.00023,-0.00017,-3e-05,-4e-05,0.0,-2e-05,1,20.0
2275,-2e-05,-5e-05,-0.00023,-0.00017,-3e-05,-4e-05,0.0,-2e-05,1,20.0
2276,-2e-05,-5e-05,-0.00023,-0.00017,-3e-05,-4e-05,0.0,-2e-05,1,20.0
2277,0.0,1e-05,6e-05,9e-05,0.00011,8e-05,0.0,2e-05,1,20.0
2278,0.0,1e-05,6e-05,9e-05,0.00011,8e-05,0.0,2e-05,1,20.0
2279,0.0,1e-05,6e-05,9e-05,0.00011,8e-05,0.0,2e-05,1,20.0
2280,0.0,1e-05,6e-05,9e-05,0.00011,8e-05,0.0,2e-05,1,20.0
2281,0.0,1e-05,6e-05,9e-05,0.00011,8e-05,0.0,2e-05,1,20.0
2282,0.0,1e-05,6e-05,9e-05,0.00011,8e-05,0.0,2e-05,1,20.0
2283,0.0,1e-05,6e-05,9e-05,0.00011,8e-05,0.0,2e-05,1,20.0
2284,0.0,1e-05,6e-05,9e-05,0.00011,8e-05,0.0,2e-05,1,20.0
2285,-2e-05,0.0,1e-05,-1e-05,-8e-05,2e-05,-2e-05,-3e-05,1,20.0
2286,-2e-05,0.0,1e-05,-1e-05,-8e-05,2e-05,-2e-05,-3e-05,1,20.0
2288,-2e-05,0.0,1e-05,-1e-05,-8e-05,2e-05,-2e-05,-3e-05,1,20.0
2289,-2e-05,0.0,1e-05,-1e-05,-8e-05,2e-05,-2e-05,-3e-05,1,20.0
2290,-2e-05,0.0,1e-05,-1e-05,-8e-05,2e-05,-2e-05,-3e-05,1,20.0
2291,-2e-05,0.0,1e-05,-1e-05,-8e-05,2e-05,-2e-05,-3e-05,1,20.0
2292,-2e-05,0.0,1e-05,-1e-05,-8e-05,2e-05,-2e-05,-3e-05,1,20.0
2293,-2e-05,0.0,1e-05,-1e-05,-8e-05,2e-05,-2e-05,-3e-05,1,20.0
2294,-2e-05,0.0,1e-05,-1e-05,-8e-05,2e-05,-2e-05,-3e-05,1,20.0
2295,-2e-05,0.0,1e-05,-1e-05,-8e-05,2e-05,-2e-05,-3e-05,1,20.0
2296,-2e-05,0.0,1e-05,-1e-05,-8e-05,2e-05,-2e-05,-3e-05,1,20.0
2297,-2e-05,0.0,1e-05,-1e-05,-8e-05,2e-05,-2e-05,-3e-05,1,20.0
2298,-2e-05,0.0,1e-05,-1e-05,-8e-05,2e-05,-2e-05,-3e-05,1,20.0
2299,-2e-05,0.0,1e-05,-1e-05,-8e-05,2e-05,-2e-05,-3e-05,1,20.0
2300,0.0,-4e-05,-6e-05,-5e-05,5e-05,4e-05,-4e-05,4e-05,1,20.0
2301,-3e-05,-6e-05,-0.00016,-8e-05,-2e-05,-1e-05,-1e-05,-0.00013,1,20.0
2302,1e-05,4e-05,8e-05,-3e-05,-0.00013,2e-05,3e-05,1e-05,1,20.0
2303,1e-05,4e-05,8e-05,-3e-05,-0.00013,2e-05,3e-05,1e-05,1,20.0
2304,1e-05,4e-05,8e-05,-3e-05,-0.00013,2e-05,3e-05,1e-05,1,20.0
2305,1e-05,4e-05,8e-05,-3e-05,-0.00013,2e-05,3e-05,1e-05,1,20.0
2306,1e-05,4e-05,8e-05,-3e-05,-0.00013,2e-05,3e-05,1e-05,1,20.0
2307,1e-05,4e-05,8e-05,-3e-05,-0.00013,2e-05,3e-05,1e-05,1,20.0
2308,1e-05,4e-05,8e-05,-3e-05,-0.00013,2e-05,3e-05,1e-05,1,20.0
2309,1e-05,4e-05,8e-05,-3e-05,-0.00013,2e-05,3e-05,1e-05,1,20.0
2310,1e-05,4e-05,8e-05,-3e-05,-0.00013,2e-05,3e-05,1e-05,1,20.0
2311,1e-05,4e-05,8e-05,-3e-05,-0.00013,2e-05,3e-05,1e-05,1,20.0
2312,1e-05,4e-05,8e-05,-3e-05,-0.00013,2e-05,3e-05,1e-05,1,20.0
2313,1e-05,4e-05,8e-05,-3e-05,-0.00013,2e-05,3e-05,1e-05,1,20.0
2314,1e-05,4e-05,8e-05,-3e-05,-0.00013,2e-05,3e-05,1e-05,1,20.0
2315,1e-05,4e-05,8e-05,-3e-05,-0.00013,2e-05,3e-05,1e-05,1,20.0
2316,1e-05,4e-05,8e-05,-3e-05,-0.00013,2e-05,3e-05,1e-05,1,20.0
2317,1e-05,4e-05,8e-05,-3e-05,-0.00013,2e-05,3e-05,1e-05,1,20.0
2318,1e-05,4e-05,8e-05,-3e-05,-0.00013,2e-05,3e-05,1e-05,1,20.0
2319,1e-05,4e-05,8e-05,-3e-05,-0.00013,2e-05,3e-05,1e-05,1,20.0
2320,1e-05,4e-05,8e-05,-3e-05,-0.00013,2e-05,3e-05,1e-05,1,20.0
2321,1e-05,4e-05,8e-05,-3e-05,-0.00013,2e-05,3e-05,1e-05,1,20.0
2322,1e-05,4e-05,8e-05,-3e-05,-0.00013,2e-05,3e-05,1e-05,1,20.0
2323,1e-05,0.0,4e-05,-1e-05,1e-05,4e-05,1e-05,4e-05,1,20.0
2324,1e-05,0.0,4e-05,-1e-05,1e-05,4e-05,1e-05,4e-05,1,20.0
2325,-2e-05,-4e-05,-5e-05,-0.00011,-0.00016,-0.00016,1e-05,-2e-05,1,20.0
2326,-2e-05,-4e-05,-5e-05,-0.00011,-0.00016,-0.00016,1e-05,-2e-05,1,20.0
2327,-2e-05,-4e-05,-5e-05,-0.00011,-0.00016,-0.00016,1e-05,-2e-05,1,20.0
2328,-2e-05,-4e-05,-5e-05,-0.00011,-0.00016,-0.00016,1e-05,-2e-05,1,20.0
2329,-2e-05,-4e-05,-5e-05,-0.00011,-0.00016,-0.00016,1e-05,-2e-05,1,20.0
2330,-2e-05,-4e-05,-5e-05,-0.00011,-0.00016,-0.00016,1e-05,-2e-05,1,20.0
2331,-2e-05,-4e-05,-5e-05,-0.00011,-0.00016,-0.00016,1e-05,-2e-05,1,20.0
2332,-2e-05,-4e-05,-5e-05,-0.00011,-0.00016,-0.00016,1e-05,-2e-05,1,20.0
2333,-2e-05,-4e-05,-5e-05,-0.00011,-0.00016,-0.00016,1e-05,-2e-05,1,20.0
2334,-2e-05,-4e-05,-5e-05,-0.00011,-0.00016,-0.00016,1e-05,-2e-05,1,20.0
2335,-2e-05,-4e-05,-5e-05,-0.00011,-0.00016,-0.00016,1e-05,-2e-05,1,20.0
2336,-2e-05,-4e-05,-5e-05,-0.00011,-0.00016,-0.00016,1e-05,-2e-05,1,20.0
2338,0.0,1e-05,8e-05,5e-05,0.00015,1e-05,-2e-05,3e-05,1,20.0
2339,0.0,1e-05,8e-05,5e-05,0.00015,1e-05,-2e-05,3e-05,1,20.0
2340,0.0,1e-05,8e-05,5e-05,0.00015,1e-05,-2e-05,3e-05,1,20.0
2341,0.0,1e-05,8e-05,5e-05,0.00015,1e-05,-2e-05,3e-05,1,20.0
2342,0.0,1e-05,8e-05,5e-05,0.00015,1e-05,-2e-05,3e-05,1,20.0
2343,0.0,1e-05,8e-05,5e-05,0.00015,1e-05,-2e-05,3e-05,1,20.0
2344,0.0,1e-05,8e-05,5e-05,0.00015,1e-05,-2e-05,3e-05,1,20.0
2345,0.0,1e-05,8e-05,5e-05,0.00015,1e-05,-2e-05,3e-05,1,20.0
2346,2e-05,0.0,8e-05,3e-05,-0.00018,7e-05,0.0,2e-05,1,20.0
2347,2e-05,0.0,8e-05,3e-05,-0.00018,7e-05,0.0,2e-05,1,20.0
2348,2e-05,0.0,8e-05,3e-05,-0.00018,7e-05,0.0,2e-05,1,20.0
2349,2e-05,0.0,8e-05,3e-05,-0.00018,7e-05,0.0,2e-05,1,20.0
2350,2e-05,0.0,8e-05,3e-05,-0.00018,7e-05,0.0,2e-05,1,20.0
2351,2e-05,0.0,8e-05,3e-05,-0.00018,7e-05,0.0,2e-05,1,20.0
2352,2e-05,0.0,8e-05,3e-05,-0.00018,7e-05,0.0,2e-05,1,20.0
2353,2e-05,0.0,8e-05,3e-05,-0.00018,7e-05,0.0,2e-05,1,20.0
2354,2e-05,0.0,8e-05,3e-05,-0.00018,7e-05,0.0,2e-05,1,20.0
2355,2e-05,0.0,8e-05,3e-05,-0.00018,7e-05,0.0,2e-05,1,20.0
2356,2e-05,0.0,8e-05,3e-05,-0.00018,7e-05,0.0,2e-05,1,20.0
2357,2e-05,0.0,8e-05,3e-05,-0.00018,7e-05,0.0,2e-05,1,20.0
2358,2e-05,0.0,8e-05,3e-05,-0.00018,7e-05,0.0,2e-05,1,20.0
2359,2e-05,0.0,8e-05,3e-05,-0.00018,7e-05,0.0,2e-05,1,20.0
2360,-1e-05,-4e-05,-0.00012,-8e-05,-1e-05,-3e-05,1e-05,-1e-05,1,20.0
2361,-2e-05,-1e-05,-3e-05,-3e-05,-9e-05,-1e-05,-2e-05,0.0,1,20.0
2362,-3e-05,2e-05,6e-05,4e-05,5e-05,3e-05,4e-05,-2e-05,1,20.0
2363,-3e-05,2e-05,6e-05,4e-05,5e-05,3e-05,4e-05,-2e-05,1,20.0
2364,-3e-05,2e-05,6e-05,4e-05,5e-05,3e-05,4e-05,-2e-05,1,20.0
2365,-3e-05,2e-05,6e-05,4e-05,5e-05,3e-05,4e-05,-2e-05,1,20.0
2366,-3e-05,2e-05,6e-05,4e-05,5e-05,3e-05,4e-05,-2e-05,1,20.0
2367,-3e-05,2e-05,6e-05,4e-05,5e-05,3e-05,4e-05,-2e-05,1,20.0
2368,-3e-05,2e-05,6e-05,4e-05,5e-05,3e-05,4e-05,-2e-05,1,20.0
2369,-3e-05,2e-05,6e-05,4e-05,5e-05,3e-05,4e-05,-2e-05,1,20.0
2370,-3e-05,2e-05,6e-05,4e-05,5e-05,3e-05,4e-05,-2e-05,1,20.0
2371,-3e-05,2e-05,6e-05,4e-05,5e-05,3e-05,4e-05,-2e-05,1,20.0
2372,-3e-05,2e-05,6e-05,4e-05,5e-05,3e-05,4e-05,-2e-05,1,20.0
2373,-3e-05,2e-05,6e-05,4e-05,5e-05,3e-05,4e-05,-2e-05,1,20.0
2374,-3e-05,2e-05,6e-05,4e-05,5e-05,3e-05,4e-05,-2e-05,1,20.0
2375,-3e-05,2e-05,6e-05,4e-05,5e-05,3e-05,4e-05,-2e-05,1,20.0
2376,-3e-05,2e-05,6e-05,4e-05,5e-05,3e-05,4e-05,-2e-05,1,20.0
2377,-3e-05,2e-05,6e-05,4e-05,5e-05,3e-05,4e-05,-2e-05,1,20.0
2378,-3e-05,2e-05,6e-05,4e-05,5e-05,3e-05,4e-05,-2e-05,1,20.0
2379,-3e-05,2e-05,6e-05,4e-05,5e-05,3e-05,4e-05,-2e-05,1,20.0
2380,-3e-05,2e-05,6e-05,4e-05,5e-05,3e-05,4e-05,-2e-05,1,20.0
2381,-3e-05,2e-05,6e-05,4e-05,5e-05,3e-05,4e-05,-2e-05,1,20.0
2382,-3e-05,2e-05,6e-05,4e-05,5e-05,3e-05,4e-05,-2e-05,1,20.0
2383,1e-05,-4e-05,1e-05,7e-05,0.00035,7e-05,-2e-05,1e-05,1,20.0
2384,1e-05,-4e-05,1e-05,7e-05,0.00035,7e-05,-2e-05,1e-05,1,20.0
2385,0.0,-3e-05,-4e-05,1e-05,-0.00017,-0.00071,1e-05,-2e-05,1,20.0
2386,0.0,-3e-05,-4e-05,1e-05,-0.00017,-0.00071,1e-05,-2e-05,1,20.0
2389,0.0,-3e-05,-4e-05,1e-05,-0.00017,-0.00071,1e-05,-2e-05,1,20.0
2390,0.0,-3e-05,-4e-05,1e-05,-0.00017,-0.00071,1e-05,-2e-05,1,20.0
2391,0.0,-3e-05,-4e-05,1e-05,-0.00017,-0.00071,1e-05,-2e-05,1,20.0
2392,0.0,-3e-05,-4e-05,1e-05,-0.00017,-0.00071,1e-05,-2e-05,1,20.0
2393,0.0,-3e-05,-4e-05,1e-05,-0.00017,-0.00071,1e-05,-2e-05,1,20.0
2394,0.0,-3e-05,-4e-05,1e-05,-0.00017,-0.00071,1e-05,-2e-05,1,20.0
2395,0.0,-3e-05,-4e-05,1e-05,-0.00017,-0.00071,1e-05,-2e-05,1,20.0
2396,0.0,-3e-05,-4e-05,1e-05,-0.00017,-0.00071,1e-05,-2e-05,1,20.0
2397,0.0,-3e-05,-7e-05,-6e-05,-0.00019,-1e-05,-2e-05,4e-05,1,20.0
2398,0.0,-3e-05,-7e-05,-6e-05,-0.00019,-1e-05,-2e-05,4e-05,1,20.0
2399,0.0,-3e-05,-7e-05,-6e-05,-0.00019,-1e-05,-2e-05,4e-05,1,20.0
2400,0.0,-3e-05,-7e-05,-6e-05,-0.00019,-1e-05,-2e-05,4e-05,1,20.0
2401,0.0,-3e-05,-7e-05,-6e-05,-0.00019,-1e-05,-2e-05,4e-05,1,20.0
2402,0.0,-3e-05,-7e-05,-6e-05,-0.00019,-1e-05,-2e-05,4e-05,1,20.0
2403,0.0,-3e-05,-7e-05,-6e-05,-0.00019,-1e-05,-2e-05,4e-05,1,20.0
2404,0.0,-3e-05,-7e-05,-6e-05,-0.00019,-1e-05,-2e-05,4e-05,1,20.0
2405,0.0,-3e-05,-7e-05,-6e-05,-0.00019,-1e-05,-2e-05,4e-05,1,20.0
2406,0.0,-3e-05,-3e-05,-3e-05,0.00015,0.00015,-1e-05,1e-05,1,20.0
2407,0.0,-3e-05,-3e-05,-3e-05,0.00015,0.00015,-1e-05,1e-05,1,20.0
2408,0.0,-3e-05,-3e-05,-3e-05,0.00015,0.00015,-1e-05,1e-05,1,20.0
2409,0.0,-3e-05,-3e-05,-3e-05,0.00015,0.00015,-1e-05,1e-05,1,20.0
2410,0.0,-3e-05,-3e-05,-3e-05,0.00015,0.00015,-1e-05,1e-05,1,20.0
2411,0.0,-3e-05,-3e-05,-3e-05,0.00015,0.00015,-1e-05,1e-05,1,20.0
2412,0.0,-3e-05,-3e-05,-3e-05,0.00015,0.00015,-1e-05,1e-05,1,20.0
2413,0.0,-3e-05,-3e-05,-3e-05,0.00015,0.00015,-1e-05,1e-05,1,20.0
2414,0.0,-3e-05,-3e-05,-3e-05,0.00015,0.00015,-1e-05,1e-05,1,20.0
2415,0.0,-3e-05,-3e-05,-3e-05,0.00015,0.00015,-1e-05,1e-05,1,20.0
2416,0.0,-3e-05,-3e-05,-3e-05,0.00015,0.00015,-1e-05,1e-05,1,20.0
2417,0.0,-3e-05,-3e-05,-3e-05,0.00015,0.00015,-1e-05,1e-05,1,20.0
2418,0.0,-3e-05,-3e-05,-3e-05,0.00015,0.00015,-1e-05,1e-05,1,20.0
2419,0.0,-3e-05,-3e-05,-3e-05,0.00015,0.00015,-1e-05,1e-05,1,20.0
2420,1e-05,2e-05,0.0,7e-05,-2e-05,-3e-05,-3e-05,-2e-05,1,20.0
2421,-2e-05,1e-05,0.00012,3e-05,-0.00019,-0.00015,0.0,1e-05,1,20.0
2422,2e-05,0.0,-4e-05,2e-05,3e-05,0.00015,-3e-05,-1e-05,1,20.0
2423,2e-05,0.0,-4e-05,2e-05,3e-05,0.00015,-3e-05,-1e-05,1,20.0
2424,2e-05,0.0,-4e-05,2e-05,3e-05,0.00015,-3e-05,-1e-05,1,20.0
2425,2e-05,0.0,-4e-05,2e-05,3e-05,0.00015,-3e-05,-1e-05,1,20.0
2426,2e-05,0.0,-4e-05,2e-05,3e-05,0.00015,-3e-05,-1e-05,1,20.0
2427,2e-05,0.0,-4e-05,2e-05,3e-05,0.00015,-3e-05,-1e-05,1,20.0
2428,2e-05,0.0,-4e-05,2e-05,3e-05,0.00015,-3e-05,-1e-05,1,20.0
2429,2e-05,0.0,-4e-05,2e-05,3e-05,0.00015,-3e-05,-1e-05,1,20.0
2430,2e-05,0.0,-4e-05,2e-05,3e-05,0.00015,-3e-05,-1e-05,1,20.0
2431,2e-05,0.0,-4e-05,2e-05,3e-05,0.00015,-3e-05,-1e-05,1,20.0
2432,2e-05,0.0,-4e-05,2e-05,3e-05,0.00015,-3e-05,-1e-05,1,20.0
2433,2e-05,0.0,-4e-05,2e-05,3e-05,0.00015,-3e-05,-1e-05,1,20.0
2434,2e-05,0.0,-4e-05,2e-05,3e-05,0.00015,-3e-05,-1e-05,1,20.0
2435,2e-05,0.0,-4e-05,2e-05,3e-05,0.00015,-3e-05,-1e-05,1,20.0
2436,2e-05,0.0,-4e-05,2e-05,3e-05,0.00015,-3e-05,-1e-05,1,20.0
2438,2e-05,0.0,-4e-05,2e-05,3e-05,0.00015,-3e-05,-1e-05,1,20.0
2439,2e-05,0.0,-4e-05,2e-05,3e-05,0.00015,-3e-05,-1e-05,1,20.0
2440,2e-05,0.0,-4e-05,2e-05,3e-05,0.00015,-3e-05,-1e-05,1,20.0
2441,2e-05,0.0,-4e-05,2e-05,3e-05,0.00015,-3e-05,-1e-05,1,20.0
2442,2e-05,0.0,-4e-05,2e-05,3e-05,0.00015,-3e-05,-1e-05,1,20.0
2443,-1e-05,-3e-05,-7e-05,-0.0001,-3e-05,7e-05,-1e-05,-4e-05,1,20.0
2444,-1e-05,-3e-05,-7e-05,-0.0001,-3e-05,7e-05,-1e-05,-4e-05,1,20.0
2445,1e-05,4e-05,8e-05,4e-05,-3e-05,8e-05,-6e-05,-2e-05,1,20.0
2446,1e-05,4e-05,8e-05,4e-05,-3e-05,8e-05,-6e-05,-2e-05,1,20.0
2447,1e-05,4e-05,8e-05,4e-05,-3e-05,8e-05,-6e-05,-2e-05,1,20.0
2448,1e-05,4e-05,8e-05,4e-05,-3e-05,8e-05,-6e-05,-2e-05,1,20.0
2449,1e-05,4e-05,8e-05,4e-05,-3e-05,8e-05,-6e-05,-2e-05,1,20.0
2450,1e-05,4e-05,8e-05,4e-05,-3e-05,8e-05,-6e-05,-2e-05,1,20.0
2451,1e-05,4e-05,8e-05,4e-05,-3e-05,8e-05,-6e-05,-2e-05,1,20.0
2452,1e-05,4e-05,8e-05,4e-05,-3e-05,8e-05,-6e-05,-2e-05,1,20.0
2453,1e-05,4e-05,8e-05,4e-05,-3e-05,8e-05,-6e-05,-2e-05,1,20.0
2454,1e-05,4e-05,8e-05,4e-05,-3e-05,8e-05,-6e-05,-2e-05,1,20.0
2455,1e-05,4e-05,8e-05,4e-05,-3e-05,8e-05,-6e-05,-2e-05,1,20.0
2456,1e-05,4e-05,8e-05,4e-05,-3e-05,8e-05,-6e-05,-2e-05,1,20.0
2457,-4e-05,-5e-05,-0.00015,-0.00013,-7e-05,-5e-05,-2e-05,-3e-05,1,20.0
2458,-4e-05,-5e-05,-0.00015,-0.00013,-7e-05,-5e-05,-2e-05,-3e-05,1,20.0
2459,-4e-05,-5e-05,-0.00015,-0.00013,-7e-05,-5e-05,-2e-05,-3e-05,1,20.0
2460,-4e-05,-5e-05,-0.00015,-0.00013,-7e-05,-5e-05,-2e-05,-3e-05,1,20.0
2461,-4e-05,-5e-05,-0.00015,-0.00013,-7e-05,-5e-05,-2e-05,-3e-05,1,20.0
2462,-4e-05,-5e-05,-0.00015,-0.00013,-7e-05,-5e-05,-2e-05,-3e-05,1,20.0
2463,-4e-05,-5e-05,-0.00015,-0.00013,-7e-05,-5e-05,-2e-05,-3e-05,1,20.0
2464,-4e-05,-5e-05,-0.00015,-0.00013,-7e-05,-5e-05,-2e-05,-3e-05,1,20.0
2465,-4e-05,-5e-05,-0.00015,-0.00013,-7e-05,-5e-05,-2e-05,-3e-05,1,20.0
2466,0.0,1e-05,-1e-05,-1e-05,0.00021,-2e-05,0.0,1e-05,1,20.0
2467,0.0,1e-05,-1e-05,-1e-05,0.00021,-2e-05,0.0,1e-05,1,20.0
2468,0.0,1e-05,-1e-05,-1e-05,0.00021,-2e-05,0.0,1e-05,1,20.0
2469,0.0,1e-05,-1e-05,-1e-05,0.00021,-2e-05,0.0,1e-05,1,20.0
2470,0.0,1e-05,-1e-05,-1e-05,0.00021,-2e-05,0.0,1e-05,1,20.0
2471,0.0,1e-05,-1e-05,-1e-05,0.00021,-2e-05,0.0,1e-05,1,20.0
2472,0.0,1e-05,-1e-05,-1e-05,0.00021,-2e-05,0.0,1e-05,1,20.0
2473,0.0,1e-05,-1e-05,-1e-05,0.00021,-2e-05,0.0,1e-05,1,20.0
2474,0.0,1e-05,-1e-05,-1e-05,0.00021,-2e-05,0.0,1e-05,1,20.0
2475,0.0,1e-05,-1e-05,-1e-05,0.00021,-2e-05,0.0,1e-05,1,20.0
2476,0.0,1e-05,-1e-05,-1e-05,0.00021,-2e-05,0.0,1e-05,1,20.0
2477,0.0,1e-05,-1e-05,-1e-05,0.00021,-2e-05,0.0,1e-05,1,20.0
2478,0.0,1e-05,-1e-05,-1e-05,0.00021,-2e-05,0.0,1e-05,1,20.0
2479,0.0,1e-05,-1e-05,-1e-05,0.00021,-2e-05,0.0,1e-05,1,20.0
2480,0.0,1e-05,-1e-05,-1e-05,0.00021,-2e-05,0.0,1e-05,1,20.0
2481,-3e-05,-1e-05,3e-05,1e-05,7e-05,-6e-05,3e-05,1e-05,1,20.0
2482,2e-05,0.0,-2e-05,-1e-05,-4e-05,0.00013,-4e-05,4e-05,1,20.0
2483,2e-05,0.0,-2e-05,-1e-05,-4e-05,0.00013,-4e-05,4e-05,1,20.0
2484,2e-05,0.0,-2e-05,-1e-05,-4e-05,0.00013,-4e-05,4e-05,1,20.0
2485,2e-05,0.0,-2e-05,-1e-05,-4e-05,0.00013,-4e-05,4e-05,1,20.0
2486,2e-05,0.0,-2e-05,-1e-05,-4e-05,0.00013,-4e-05,4e-05,1,20.0
2488,2e-05,0.0,-2e-05,-1e-05,-4e-05,0.00013,-4e-05,4e-05,1,20.0
2489,2e-05,0.0,-2e-05,-1e-05,-4e-05,0.00013,-4e-05,4e-05,1,20.0
2490,2e-05,0.0,-2e-05,-1e-05,-4e-05,0.00013,-4e-05,4e-05,1,20.0
2491,2e-05,0.0,-2e-05,-1e-05,-4e-05,0.00013,-4e-05,4e-05,1,20.0
2492,2e-05,0.0,-2e-05,-1e-05,-4e-05,0.00013,-4e-05,4e-05,1,20.0
2493,2e-05,0.0,-2e-05,-1e-05,-4e-05,0.00013,-4e-05,4e-05,1,20.0
2494,2e-05,0.0,-2e-05,-1e-05,-4e-05,0.00013,-4e-05,4e-05,1,20.0
2495,2e-05,0.0,-2e-05,-1e-05,-4e-05,0.00013,-4e-05,4e-05,1,20.0
2496,2e-05,0.0,-2e-05,-1e-05,-4e-05,0.00013,-4e-05,4e-05,1,20.0
2497,2e-05,0.0,-2e-05,-1e-05,-4e-05,0.00013,-4e-05,4e-05,1,20.0
2498,2e-05,0.0,-2e-05,-1e-05,-4e-05,0.00013,-4e-05,4e-05,1,20.0
2499,2e-05,0.0,-2e-05,-1e-05,-4e-05,0.00013,-4e-05,4e-05,1,20.0
2500,2e-05,0.0,-2e-05,-1e-05,-4e-05,0.00013,-4e-05,4e-05,1,20.0
2501,2e-05,0.0,-2e-05,-1e-05,-4e-05,0.00013,-4e-05,4e-05,1,20.0
2502,2e-05,0.0,-2e-05,-1e-05,-4e-05,0.00013,-4e-05,4e-05,1,20.0
2503,-1e-05,0.0,9e-05,0.00011,3e-05,3e-05,1e-05,0.0,1,20.0
2504,-1e-05,0.0,9e-05,0.00011,3e-05,3e-05,1e-05,0.0,1,20.0
2505,-2e-05,-7e-05,-0.00013,-0.00013,1e-05,3e-05,-1e-05,-3e-05,1,20.0
2507,-2e-05,-7e-05,-0.00013,-0.00013,1e-05,3e-05,-1e-05,-3e-05,1,20.0
2508,-2e-05,-7e-05,-0.00013,-0.00013,1e-05,3e-05,-1e-05,-3e-05,1,20.0
2509,-2e-05,-7e-05,-0.00013,-0.00013,1e-05,3e-05,-1e-05,-3e-05,1,20.0
2510,-2e-05,-7e-05,-0.00013,-0.00013,1e-05,3e-05,-1e-05,-3e-05,1,20.0
2511,-2e-05,-7e-05,-0.00013,-0.00013,1e-05,3e-05,-1e-05,-3e-05,1,20.0
2512,-2e-05,-7e-05,-0.00013,-0.00013,1e-05,3e-05,-1e-05,-3e-05,1,20.0
2513,-2e-05,-7e-05,-0.00013,-0.00013,1e-05,3e-05,-1e-05,-3e-05,1,20.0
2514,-2e-05,-7e-05,-0.00013,-0.00013,1e-05,3e-05,-1e-05,-3e-05,1,20.0
2515,-2e-05,-7e-05,-0.00013,-0.00013,1e-05,3e-05,-1e-05,-3e-05,1,20.0
2516,-2e-05,-7e-05,-0.00013,-0.00013,1e-05,3e-05,-1e-05,-3e-05,1,20.0
2517,1e-05,0.0,2e-05,-1e-05,-8e-05,-3e-05,3e-05,5e-05,1,20.0
2518,1e-05,0.0,2e-05,-1e-05,-8e-05,-3e-05,3e-05,5e-05,1,20.0
2519,1e-05,0.0,2e-05,-1e-05,-8e-05,-3e-05,3e-05,5e-05,1,20.0
2520,1e-05,0.0,2e-05,-1e-05,-8e-05,-3e-05,3e-05,5e-05,1,20.0
2521,1e-05,0.0,2e-05,-1e-05,-8e-05,-3e-05,3e-05,5e-05,1,20.0
2522,1e-05,0.0,2e-05,-1e-05,-8e-05,-3e-05,3e-05,5e-05,1,20.0
2523,1e-05,0.0,2e-05,-1e-05,-8e-05,-3e-05,3e-05,5e-05,1,20.0
2524,1e-05,0.0,2e-05,-1e-05,-8e-05,-3e-05,3e-05,5e-05,1,20.0
2525,1e-05,0.0,2e-05,-1e-05,-8e-05,-3e-05,3e-05,5e-05,1,20.0
2526,-1e-05,2e-05,8e-05,0.0,-0.00012,-3e-05,-2e-05,0.0,1,20.0
2527,-1e-05,2e-05,8e-05,0.0,-0.00012,-3e-05,-2e-05,0.0,1,20.0
2528,-1e-05,2e-05,8e-05,0.0,-0.00012,-3e-05,-2e-05,0.0,1,20.0
2529,-1e-05,2e-05,8e-05,0.0,-0.00012,-3e-05,-2e-05,0.0,1,20.0
2530,-1e-05,2e-05,8e-05,0.0,-0.00012,-3e-05,-2e-05,0.0,1,20.0
2531,-1e-05,2e-05,8e-05,0.0,-0.00012,-3e-05,-2e-05,0.0,1,20.0
2532,-1e-05,2e-05,8e-05,0.0,-0.00012,-3e-05,-2e-05,0.0,1,20.0
2533,-1e-05,2e-05,8e-05,0.0,-0.00012,-3e-05,-2e-05,0.0,1,20.0
2534,-1e-05,2e-05,8e-05,0.0,-0.00012,-3e-05,-2e-05,0.0,1,20.0
2535,-1e-05,2e-05,8e-05,0.0,-0.00012,-3e-05,-2e-05,0.0,1,20.0
2536,-1e-05,2e-05,8e-05,0.0,-0.00012,-3e-05,-2e-05,0.0,1,20.0
2538,-1e-05,2e-05,8e-05,0.0,-0.00012,-3e-05,-2e-05,0.0,1,20.0
2539,-1e-05,2e-05,8e-05,0.0,-0.00012,-3e-05,-2e-05,0.0,1,20.0
2540,-1e-05,-8e-05,-0.00014,-7e-05,-7e-05,-3e-05,1e-05,1e-05,1,20.0
2541,0.0,-2e-05,-2e-05,0.0,0.0,3e-05,-4e-05,-6e-05,1,20.0
2542,-3e-05,-2e-05,1e-05,-1e-05,-3e-05,-3e-05,-4e-05,-8e-05,1,20.0
2543,-3e-05,-2e-05,1e-05,-1e-05,-3e-05,-3e-05,-4e-05,-8e-05,1,20.0
2544,-3e-05,-2e-05,1e-05,-1e-05,-3e-05,-3e-05,-4e-05,-8e-05,1,20.0
2545,-3e-05,-2e-05,1e-05,-1e-05,-3e-05,-3e-05,-4e-05,-8e-05,1,20.0
2546,-3e-05,-2e-05,1e-05,-1e-05,-3e-05,-3e-05,-4e-05,-8e-05,1,20.0
2547,-3e-05,-2e-05,1e-05,-1e-05,-3e-05,-3e-05,-4e-05,-8e-05,1,20.0
2548,-3e-05,-2e-05,1e-05,-1e-05,-3e-05,-3e-05,-4e-05,-8e-05,1,20.0
2549,-3e-05,-2e-05,1e-05,-1e-05,-3e-05,-3e-05,-4e-05,-8e-05,1,20.0
2550,-3e-05,-2e-05,1e-05,-1e-05,-3e-05,-3e-05,-4e-05,-8e-05,1,20.0
2551,-3e-05,-2e-05,1e-05,-1e-05,-3e-05,-3e-05,-4e-05,-8e-05,1,20.0
2552,-3e-05,-2e-05,1e-05,-1e-05,-3e-05,-3e-05,-4e-05,-8e-05,1,20.0
2553,-3e-05,-2e-05,1e-05,-1e-05,-3e-05,-3e-05,-4e-05,-8e-05,1,20.0
2554,-3e-05,-2e-05,1e-05,-1e-05,-3e-05,-3e-05,-4e-05,-8e-05,1,20.0
2555,-3e-05,-2e-05,1e-05,-1e-05,-3e-05,-3e-05,-4e-05,-8e-05,1,20.0
2556,-3e-05,-2e-05,1e-05,-1e-05,-3e-05,-3e-05,-4e-05,-8e-05,1,20.0
2557,-3e-05,-2e-05,1e-05,-1e-05,-3e-05,-3e-05,-4e-05,-8e-05,1,20.0
2558,-3e-05,-2e-05,1e-05,-1e-05,-3e-05,-3e-05,-4e-05,-8e-05,1,20.0
2559,-3e-05,-2e-05,1e-05,-1e-05,-3e-05,-3e-05,-4e-05,-8e-05,1,20.0
2560,-3e-05,-2e-05,1e-05,-1e-05,-3e-05,-3e-05,-4e-05,-8e-05,1,20.0
2561,-3e-05,-2e-05,1e-05,-1e-05,-3e-05,-3e-05,-4e-05,-8e-05,1,20.0
2562,-3e-05,-2e-05,1e-05,-1e-05,-3e-05,-3e-05,-4e-05,-8e-05,1,20.0
2563,2e-05,2e-05,5e-05,-4e-05,-0.00016,0.0,-3e-05,-5e-05,1,20.0
2564,2e-05,2e-05,5e-05,-4e-05,-0.00016,0.0,-3e-05,-5e-05,1,20.0
2565,-1e-05,0.0,-4e-05,-5e-05,1e-05,1e-05,-6e-05,1e-05,1,20.0
2566,-1e-05,0.0,-4e-05,-5e-05,1e-05,1e-05,-6e-05,1e-05,1,20.0
2567,-1e-05,0.0,-4e-05,-5e-05,1e-05,1e-05,-6e-05,1e-05,1,20.0
2568,-1e-05,0.0,-4e-05,-5e-05,1e-05,1e-05,-6e-05,1e-05,1,20.0
2569,-1e-05,0.0,-4e-05,-5e-05,1e-05,1e-05,-6e-05,1e-05,1,20.0
2570,-1e-05,0.0,-4e-05,-5e-05,1e-05,1e-05,-6e-05,1e-05,1,20.0
2571,-1e-05,0.0,-4e-05,-5e-05,1e-05,1e-05,-6e-05,1e-05,1,20.0
2572,-1e-05,0.0,-4e-05,-5e-05,1e-05,1e-05,-6e-05,1e-05,1,20.0
2573,-1e-05,0.0,-4e-05,-5e-05,1e-05,1e-05,-6e-05,1e-05,1,20.0
2574,-1e-05,0.0,-4e-05,-5e-05,1e-05,1e-05,-6e-05,1e-05,1,20.0
2575,-1e-05,0.0,-4e-05,-5e-05,1e-05,1e-05,-6e-05,1e-05,1,20.0
2576,-1e-05,0.0,-4e-05,-5e-05,1e-05,1e-05,-6e-05,1e-05,1,20.0
2577,-1e-05,0.0,-4e-05,-5e-05,1e-05,1e-05,-6e-05,1e-05,1,20.0
2578,-1e-05,0.0,-4e-05,-5e-05,1e-05,1e-05,-6e-05,1e-05,1,20.0
2579,-1e-05,0.0,-4e-05,-5e-05,1e-05,1e-05,-6e-05,1e-05,1,20.0
2580,-1e-05,0.0,-4e-05,-5e-05,1e-05,1e-05,-6e-05,1e-05,1,20.0
2581,-1e-05,0.0,-4e-05,-5e-05,1e-05,1e-05,-6e-05,1e-05,1,20.0
2582,-1e-05,0.0,-4e-05,-5e-05,1e-05,1e-05,-6e-05,1e-05,1,20.0
2583,-1e-05,0.0,-4e-05,-5e-05,1e-05,1e-05,-6e-05,1e-05,1,20.0
2584,-1e-05,0.0,-4e-05,-5e-05,1e-05,1e-05,-6e-05,1e-05,1,20.0
2585,-2e-05,-2e-05,-1e-05,-1e-05,-7e-05,-1e-05,-3e-05,-4e-05,1,20.0
2586,1e-05,0.0,-2e-05,-2e-05,-7e-05,-3e-05,2e-05,-2e-05,1,20.0
2588,-1e-05,0.0,0.0,1e-05,3e-05,4e-05,-3e-05,-1e-05,1,20.0
2589,-1e-05,0.0,0.0,1e-05,3e-05,4e-05,-3e-05,-1e-05,1,20.0
2590,-1e-05,0.0,0.0,1e-05,3e-05,4e-05,-3e-05,-1e-05,1,20.0
2591,-1e-05,0.0,0.0,1e-05,3e-05,4e-05,-3e-05,-1e-05,1,20.0
2592,-1e-05,0.0,0.0,1e-05,3e-05,4e-05,-3e-05,-1e-05,1,20.0
2593,-1e-05,0.0,0.0,1e-05,3e-05,4e-05,-3e-05,-1e-05,1,20.0
2594,-1e-05,0.0,0.0,1e-05,3e-05,4e-05,-3e-05,-1e-05,1,20.0
2595,-1e-05,0.0,0.0,1e-05,3e-05,4e-05,-3e-05,-1e-05,1,20.0
2596,-1e-05,0.0,0.0,1e-05,3e-05,4e-05,-3e-05,-1e-05,1,20.0
2597,-1e-05,0.0,0.0,1e-05,3e-05,4e-05,-3e-05,-1e-05,1,20.0
2598,-1e-05,0.0,0.0,1e-05,3e-05,4e-05,-3e-05,-1e-05,1,20.0
2599,-1e-05,0.0,0.0,1e-05,3e-05,4e-05,-3e-05,-1e-05,1,20.0
2600,0.0,0.0,1e-05,-8e-05,-2e-05,-1e-05,-1e-05,-1e-05,1,20.0
2601,-5e-05,0.0,-2e-05,9e-05,-4e-05,-1e-05,-3e-05,2e-05,1,20.0
2602,-4e-05,-2e-05,0.0,6e-05,-2e-05,3e-05,4e-05,-1e-05,1,20.0
2603,-4e-05,-2e-05,0.0,6e-05,-2e-05,3e-05,4e-05,-1e-05,1,20.0
2604,-4e-05,-2e-05,0.0,6e-05,-2e-05,3e-05,4e-05,-1e-05,1,20.0
2605,-4e-05,-2e-05,0.0,6e-05,-2e-05,3e-05,4e-05,-1e-05,1,20.0
2606,-4e-05,-2e-05,0.0,6e-05,-2e-05,3e-05,4e-05,-1e-05,1,20.0
2607,-4e-05,-2e-05,0.0,6e-05,-2e-05,3e-05,4e-05,-1e-05,1,20.0
2608,-4e-05,-2e-05,0.0,6e-05,-2e-05,3e-05,4e-05,-1e-05,1,20.0
2609,-4e-05,-2e-05,0.0,6e-05,-2e-05,3e-05,4e-05,-1e-05,1,20.0
2610,-4e-05,-2e-05,0.0,6e-05,-2e-05,3e-05,4e-05,-1e-05,1,20.0
2611,-4e-05,-2e-05,0.0,6e-05,-2e-05,3e-05,4e-05,-1e-05,1,20.0
2612,-4e-05,-2e-05,0.0,6e-05,-2e-05,3e-05,4e-05,-1e-05,1,20.0
2613,-4e-05,-2e-05,0.0,6e-05,-2e-05,3e-05,4e-05,-1e-05,1,20.0
2614,-4e-05,-2e-05,0.0,6e-05,-2e-05,3e-05,4e-05,-1e-05,1,20.0
2615,-4e-05,-2e-05,0.0,6e-05,-2e-05,3e-05,4e-05,-1e-05,1,20.0
2616,-4e-05,-2e-05,0.0,6e-05,-2e-05,3e-05,4e-05,-1e-05,1,20.0
2617,-4e-05,-2e-05,0.0,6e-05,-2e-05,3e-05,4e-05,-1e-05,1,20.0
2618,-4e-05,-2e-05,0.0,6e-05,-2e-05,3e-05,4e-05,-1e-05,1,20.0
2619,-4e-05,-2e-05,0.0,6e-05,-2e-05,3e-05,4e-05,-1e-05,1,20.0
2620,-4e-05,-2e-05,0.0,6e-05,-2e-05,3e-05,4e-05,-1e-05,1,20.0
2621,-4e-05,-2e-05,0.0,6e-05,-2e-05,3e-05,4e-05,-1e-05,1,20.0
2622,-4e-05,-2e-05,0.0,6e-05,-2e-05,3e-05,4e-05,-1e-05,1,20.0
2623,1e-05,-2e-05,-6e-05,-4e-05,3e-05,1e-05,1e-05,2e-05,1,20.0
2624,1e-05,-2e-05,-6e-05,-4e-05,3e-05,1e-05,1e-05,2e-05,1,20.0
2625,0.0,-4e-05,-4e-05,-5e-05,-0.00023,-0.00023,1e-05,-2e-05,1,20.0
2626,0.0,-4e-05,-4e-05,-5e-05,-0.00023,-0.00023,1e-05,-2e-05,1,20.0
2627,0.0,-4e-05,-4e-05,-5e-05,-0.00023,-0.00023,1e-05,-2e-05,1,20.0
2628,0.0,-4e-05,-4e-05,-5e-05,-0.00023,-0.00023,1e-05,-2e-05,1,20.0
2629,0.0,-4e-05,-4e-05,-5e-05,-0.00023,-0.00023,1e-05,-2e-05,1,20.0
2630,0.0,-4e-05,-4e-05,-5e-05,-0.00023,-0.00023,1e-05,-2e-05,1,20.0
2631,0.0,-4e-05,-4e-05,-5e-05,-0.00023,-0.00023,1e-05,-2e-05,1,20.0
2632,0.0,-4e-05,-4e-05,-5e-05,-0.00023,-0.00023,1e-05,-2e-05,1,20.0
2633,0.0,-4e-05,-4e-05,-5e-05,-0.00023,-0.00023,1e-05,-2e-05,1,20.0
2634,0.0,-4e-05,-4e-05,-5e-05,-0.00023,-0.00023,1e-05,-2e-05,1,20.0
2635,0.0,-4e-05,-4e-05,-5e-05,-0.00023,-0.00023,1e-05,-2e-05,1,20.0
2636,0.0,-4e-05,-4e-05,-5e-05,-0.00023,-0.00023,1e-05,-2e-05,1,20.0
2638,0.0,-4e-05,-4e-05,-5e-05,-0.00023,-0.00023,1e-05,-2e-05,1,20.0
2639,0.0,-4e-05,-4e-05,-5e-05,-0.00023,-0.00023,1e-05,-2e-05,1,20.0
2640,0.0,-4e-05,-4e-05,-5e-05,-0.00023,-0.00023,1e-05,-2e-05,1,20.0
2641,0.0,-4e-05,-4e-05,-5e-05,-0.00023,-0.00023,1e-05,-2e-05,1,20.0
2642,0.0,-4e-05,-4e-05,-5e-05,-0.00023,-0.00023,1e-05,-2e-05,1,20.0
2643,0.0,-4e-05,-4e-05,-5e-05,-0.00023,-0.00023,1e-05,-2e-05,1,20.0
2644,0.0,-4e-05,-4e-05,-5e-05,-0.00023,-0.00023,1e-05,-2e-05,1,20.0
2645,3e-05,2e-05,6e-05,0.00013,0.00022,7e-05,0.0,-4e-05,1,20.0
2646,-1e-05,0.0,-2e-05,-3e-05,-1e-05,0.0,-3e-05,0.0,1,20.0
2647,-1e-05,1e-05,-1e-05,0.0,0.0001,6e-05,0.0,-1e-05,1,20.0
2648,-1e-05,1e-05,-1e-05,0.0,0.0001,6e-05,0.0,-1e-05,1,20.0
2649,-1e-05,1e-05,-1e-05,0.0,0.0001,6e-05,0.0,-1e-05,1,20.0
2650,-1e-05,1e-05,-1e-05,0.0,0.0001,6e-05,0.0,-1e-05,1,20.0
2651,-1e-05,1e-05,-1e-05,0.0,0.0001,6e-05,0.0,-1e-05,1,20.0
2652,-1e-05,1e-05,-1e-05,0.0,0.0001,6e-05,0.0,-1e-05,1,20.0
2653,-1e-05,1e-05,-1e-05,0.0,0.0001,6e-05,0.0,-1e-05,1,20.0
2654,-1e-05,1e-05,-1e-05,0.0,0.0001,6e-05,0.0,-1e-05,1,20.0
2655,-1e-05,1e-05,-1e-05,0.0,0.0001,6e-05,0.0,-1e-05,1,20.0
2656,-1e-05,1e-05,-1e-05,0.0,0.0001,6e-05,0.0,-1e-05,1,20.0
2657,-1e-05,1e-05,-1e-05,0.0,0.0001,6e-05,0.0,-1e-05,1,20.0
2658,-1e-05,1e-05,-1e-05,0.0,0.0001,6e-05,0.0,-1e-05,1,20.0
2659,-1e-05,1e-05,-1e-05,0.0,0.0001,6e-05,0.0,-1e-05,1,20.0
2660,0.0,2e-05,2e-05,-1e-05,-7e-05,0.0,-3e-05,0.0,1,20.0
2661,1e-05,0.0,6e-05,0.00013,-0.00011,0.0,6e-05,2e-05,1,20.0
2662,-5e-05,-6e-05,-7e-05,-1e-05,2e-05,5e-05,0.0,-6e-05,1,20.0
2663,-5e-05,-6e-05,-7e-05,-1e-05,2e-05,5e-05,0.0,-6e-05,1,20.0
2664,-5e-05,-6e-05,-7e-05,-1e-05,2e-05,5e-05,0.0,-6e-05,1,20.0
2665,-5e-05,-6e-05,-7e-05,-1e-05,2e-05,5e-05,0.0,-6e-05,1,20.0
2666,-5e-05,-6e-05,-7e-05,-1e-05,2e-05,5e-05,0.0,-6e-05,1,20.0
2667,-5e-05,-6e-05,-7e-05,-1e-05,2e-05,5e-05,0.0,-6e-05,1,20.0
2668,-5e-05,-6e-05,-7e-05,-1e-05,2e-05,5e-05,0.0,-6e-05,1,20.0
2669,-5e-05,-6e-05,-7e-05,-1e-05,2e-05,5e-05,0.0,-6e-05,1,20.0
2670,-5e-05,-6e-05,-7e-05,-1e-05,2e-05,5e-05,0.0,-6e-05,1,20.0
2671,-5e-05,-6e-05,-7e-05,-1e-05,2e-05,5e-05,0.0,-6e-05,1,20.0
2672,-5e-05,-6e-05,-7e-05,-1e-05,2e-05,5e-05,0.0,-6e-05,1,20.0
2673,-5e-05,-6e-05,-7e-05,-1e-05,2e-05,5e-05,0.0,-6e-05,1,20.0
2674,-5e-05,-6e-05,-7e-05,-1e-05,2e-05,5e-05,0.0,-6e-05,1,20.0
2675,-5e-05,-6e-05,-7e-05,-1e-05,2e-05,5e-05,0.0,-6e-05,1,20.0
2676,-5e-05,-6e-05,-7e-05,-1e-05,2e-05,5e-05,0.0,-6e-05,1,20.0
2677,-5e-05,-6e-05,-7e-05,-1e-05,2e-05,5e-05,0.0,-6e-05,1,20.0
2678,-5e-05,-6e-05,-7e-05,-1e-05,2e-05,5e-05,0.0,-6e-05,1,20.0
2679,-5e-05,-6e-05,-7e-05,-1e-05,2e-05,5e-05,0.0,-6e-05,1,20.0
2680,-5e-05,-6e-05,-7e-05,-1e-05,2e-05,5e-05,0.0,-6e-05,1,20.0
2681,-5e-05,-6e-05,-7e-05,-1e-05,2e-05,5e-05,0.0,-6e-05,1,20.0
2682,-5e-05,-6e-05,-7e-05,-1e-05,2e-05,5e-05,0.0,-6e-05,1,20.0
2683,-2e-05,-1e-05,-1e-05,-2e-05,0.0,-1e-05,-4e-05,4e-05,1,20.0
2684,-1e-05,5e-05,3e-05,6e-05,-1e-05,-1e-05,2e-05,0.0,1,20.0
2685,0.0,-2e-05,-3e-05,2e-05,-0.00017,6e-05,0.0,0.0,1,20.0
2686,0.0,-2e-05,-3e-05,2e-05,-0.00017,6e-05,0.0,0.0,1,20.0
2688,0.0,-2e-05,-3e-05,2e-05,-0.00017,6e-05,0.0,0.0,1,20.0
2689,0.0,-2e-05,-3e-05,2e-05,-0.00017,6e-05,0.0,0.0,1,20.0
2690,0.0,-2e-05,-3e-05,2e-05,-0.00017,6e-05,0.0,0.0,1,20.0
2691,0.0,-2e-05,-3e-05,2e-05,-0.00017,6e-05,0.0,0.0,1,20.0
2692,0.0,-2e-05,-3e-05,2e-05,-0.00017,6e-05,0.0,0.0,1,20.0
2693,0.0,-2e-05,-3e-05,2e-05,-0.00017,6e-05,0.0,0.0,1,20.0
2694,0.0,-2e-05,-3e-05,2e-05,-0.00017,6e-05,0.0,0.0,1,20.0
2695,0.0,-2e-05,-3e-05,2e-05,-0.00017,6e-05,0.0,0.0,1,20.0
2696,0.0,-2e-05,-3e-05,2e-05,-0.00017,6e-05,0.0,0.0,1,20.0
2697,0.0,-2e-05,-3e-05,2e-05,-0.00017,6e-05,0.0,0.0,1,20.0
2698,0.0,-2e-05,-3e-05,2e-05,-0.00017,6e-05,0.0,0.0,1,20.0
2699,0.0,-2e-05,-3e-05,2e-05,-0.00017,6e-05,0.0,0.0,1,20.0
2700,0.0,-2e-05,-3e-05,2e-05,-0.00017,6e-05,0.0,0.0,1,20.0
2701,0.0,-2e-05,-3e-05,2e-05,-0.00017,6e-05,0.0,0.0,1,20.0
2702,0.0,-2e-05,-3e-05,2e-05,-0.00017,6e-05,0.0,0.0,1,20.0
2703,0.0,-2e-05,-3e-05,2e-05,-0.00017,6e-05,0.0,0.0,1,20.0
2704,0.0,-2e-05,-3e-05,2e-05,-0.00017,6e-05,0.0,0.0,1,20.0
2705,-6e-05,-6e-05,-0.0001,-1e-05,0.00025,-0.00011,-5e-05,-3e-05,1,20.0
2706,0.0,-2e-05,-1e-05,-2e-05,-3e-05,1e-05,-2e-05,-2e-05,1,20.0
2707,2e-05,2e-05,1e-05,-2e-05,-3e-05,2e-05,0.0,1e-05,1,20.0
2708,2e-05,2e-05,1e-05,-2e-05,-3e-05,2e-05,0.0,1e-05,1,20.0
2709,2e-05,2e-05,1e-05,-2e-05,-3e-05,2e-05,0.0,1e-05,1,20.0
2710,2e-05,2e-05,1e-05,-2e-05,-3e-05,2e-05,0.0,1e-05,1,20.0
2711,2e-05,2e-05,1e-05,-2e-05,-3e-05,2e-05,0.0,1e-05,1,20.0
2712,2e-05,2e-05,1e-05,-2e-05,-3e-05,2e-05,0.0,1e-05,1,20.0
2713,2e-05,2e-05,1e-05,-2e-05,-3e-05,2e-05,0.0,1e-05,1,20.0
2714,2e-05,2e-05,1e-05,-2e-05,-3e-05,2e-05,0.0,1e-05,1,20.0
2715,2e-05,2e-05,1e-05,-2e-05,-3e-05,2e-05,0.0,1e-05,1,20.0
2716,2e-05,2e-05,1e-05,-2e-05,-3e-05,2e-05,0.0,1e-05,1,20.0
2717,2e-05,2e-05,1e-05,-2e-05,-3e-05,2e-05,0.0,1e-05,1,20.0
2718,2e-05,2e-05,1e-05,-2e-05,-3e-05,2e-05,0.0,1e-05,1,20.0
2719,2e-05,2e-05,1e-05,-2e-05,-3e-05,2e-05,0.0,1e-05,1,20.0
2720,0.0,1e-05,1e-05,-5e-05,-0.00023,5e-05,3e-05,1e-05,1,20.0
2721,-3e-05,-4e-05,-6e-05,-2e-05,0.0,-4e-05,-5e-05,2e-05,1,20.0
2722,0.0,2e-05,4e-05,0.0001,4e-05,0.00011,-8e-05,1e-05,1,20.0
2723,0.0,2e-05,4e-05,0.0001,4e-05,0.00011,-8e-05,1e-05,1,20.0
2724,0.0,2e-05,4e-05,0.0001,4e-05,0.00011,-8e-05,1e-05,1,20.0
2725,0.0,2e-05,4e-05,0.0001,4e-05,0.00011,-8e-05,1e-05,1,20.0
2726,0.0,2e-05,4e-05,0.0001,4e-05,0.00011,-8e-05,1e-05,1,20.0
2727,0.0,2e-05,4e-05,0.0001,4e-05,0.00011,-8e-05,1e-05,1,20.0
2728,0.0,2e-05,4e-05,0.0001,4e-05,0.00011,-8e-05,1e-05,1,20.0
2729,0.0,2e-05,4e-05,0.0001,4e-05,0.00011,-8e-05,1e-05,1,20.0
2730,0.0,2e-05,4e-05,0.0001,4e-05,0.00011,-8e-05,1e-05,1,20.0
2731,0.0,2e-05,4e-05,0.0001,4e-05,0.00011,-8e-05,1e-05,1,20.0
2732,0.0,2e-05,4e-05,0.0001,4e-05,0.00011,-8e-05,1e-05,1,20.0
2733,0.0,2e-05,4e-05,0.0001,4e-05,0.00011,-8e-05,1e-05,1,20.0
2734,0.0,2e-05,4e-05,0.0001,4e-05,0.00011,-8e-05,1e-05,1,20.0
2735,0.0,2e-05,4e-05,0.0001,4e-05,0.00011,-8e-05,1e-05,1,20.0
2736,0.0,2e-05,4e-05,0.0001,4e-05,0.00011,-8e-05,1e-05,1,20.0
2738,0.0,2e-05,4e-05,0.0001,4e-05,0.00011,-8e-05,1e-05,1,20.0
2739,0.0,2e-05,4e-05,0.0001,4e-05,0.00011,-8e-05,1e-05,1,20.0
2740,0.0,2e-05,4e-05,0.0001,4e-05,0.00011,-8e-05,1e-05,1,20.0
2741,0.0,2e-05,4e-05,0.0001,4e-05,0.00011,-8e-05,1e-05,1,20.0
2742,0.0,2e-05,4e-05,0.0001,4e-05,0.00011,-8e-05,1e-05,1,20.0
2743,-5e-05,-2e-05,-7e-05,-6e-05,0.00028,-3e-05,3e-05,-2e-05,1,20.0
2744,-1e-05,-4e-05,-4e-05,-3e-05,-0.00015,-0.00018,0.0,-5e-05,1,20.0
2745,2e-05,-2e-05,-1e-05,1e-05,7e-05,2e-05,-2e-05,2e-05,1,20.0
2746,2e-05,-2e-05,-1e-05,1e-05,7e-05,2e-05,-2e-05,2e-05,1,20.0
2747,2e-05,-2e-05,-1e-05,1e-05,7e-05,2e-05,-2e-05,2e-05,1,20.0
2748,2e-05,-2e-05,-1e-05,1e-05,7e-05,2e-05,-2e-05,2e-05,1,20.0
2749,2e-05,-2e-05,-1e-05,1e-05,7e-05,2e-05,-2e-05,2e-05,1,20.0
2750,2e-05,-2e-05,-1e-05,1e-05,7e-05,2e-05,-2e-05,2e-05,1,20.0
2751,2e-05,-2e-05,-1e-05,1e-05,7e-05,2e-05,-2e-05,2e-05,1,20.0
2752,2e-05,-2e-05,-1e-05,1e-05,7e-05,2e-05,-2e-05,2e-05,1,20.0
2753,2e-05,-2e-05,-1e-05,1e-05,7e-05,2e-05,-2e-05,2e-05,1,20.0
2754,2e-05,-2e-05,-1e-05,1e-05,7e-05,2e-05,-2e-05,2e-05,1,20.0
2755,2e-05,-2e-05,-1e-05,1e-05,7e-05,2e-05,-2e-05,2e-05,1,20.0
2756,2e-05,-2e-05,-1e-05,1e-05,7e-05,2e-05,-2e-05,2e-05,1,20.0
2757,2e-05,-2e-05,-1e-05,1e-05,7e-05,2e-05,-2e-05,2e-05,1,20.0
2758,2e-05,-2e-05,-1e-05,1e-05,7e-05,2e-05,-2e-05,2e-05,1,20.0
2759,2e-05,-2e-05,-1e-05,1e-05,7e-05,2e-05,-2e-05,2e-05,1,20.0
2760,2e-05,-2e-05,-1e-05,1e-05,7e-05,2e-05,-2e-05,2e-05,1,20.0
2761,2e-05,-2e-05,-1e-05,1e-05,7e-05,2e-05,-2e-05,2e-05,1,20.0
2762,2e-05,-2e-05,-1e-05,1e-05,7e-05,2e-05,-2e-05,2e-05,1,20.0
2763,2e-05,-2e-05,-1e-05,1e-05,7e-05,2e-05,-2e-05,2e-05,1,20.0
2764,2e-05,-2e-05,-1e-05,1e-05,7e-05,2e-05,-2e-05,2e-05,1,20.0
2766,0.0,2e-05,2e-05,-6e-05,-0.0001,3e-05,0.0,-6e-05,1,20.0
2767,2e-05,-1e-05,-1e-05,-3e-05,2e-05,-6e-05,2e-05,8e-05,1,20.0
2768,2e-05,-1e-05,-1e-05,-3e-05,2e-05,-6e-05,2e-05,8e-05,1,20.0
2769,2e-05,-1e-05,-1e-05,-3e-05,2e-05,-6e-05,2e-05,8e-05,1,20.0
2770,2e-05,-1e-05,-1e-05,-3e-05,2e-05,-6e-05,2e-05,8e-05,1,20.0
2771,2e-05,-1e-05,-1e-05,-3e-05,2e-05,-6e-05,2e-05,8e-05,1,20.0
2772,2e-05,-1e-05,-1e-05,-3e-05,2e-05,-6e-05,2e-05,8e-05,1,20.0
2773,2e-05,-1e-05,-1e-05,-3e-05,2e-05,-6e-05,2e-05,8e-05,1,20.0
2774,2e-05,-1e-05,-1e-05,-3e-05,2e-05,-6e-05,2e-05,8e-05,1,20.0
2775,2e-05,-1e-05,-1e-05,-3e-05,2e-05,-6e-05,2e-05,8e-05,1,20.0
2776,2e-05,-1e-05,-1e-05,-3e-05,2e-05,-6e-05,2e-05,8e-05,1,20.0
2777,2e-05,-1e-05,-1e-05,-3e-05,2e-05,-6e-05,2e-05,8e-05,1,20.0
2778,2e-05,-1e-05,-1e-05,-3e-05,2e-05,-6e-05,2e-05,8e-05,1,20.0
2779,2e-05,-1e-05,-1e-05,-3e-05,2e-05,-6e-05,2e-05,8e-05,1,20.0
2780,-1e-05,-2e-05,4e-05,-1e-05,-1e-05,-1e-05,1e-05,1e-05,1,20.0
2781,-1e-05,-2e-05,4e-05,-1e-05,-1e-05,-1e-05,1e-05,1e-05,1,20.0
2782,-1e-05,-2e-05,4e-05,-1e-05,-1e-05,-1e-05,1e-05,1e-05,1,20.0
2783,-1e-05,-2e-05,4e-05,-1e-05,-1e-05,-1e-05,1e-05,1e-05,1,20.0
2784,-1e-05,-2e-05,4e-05,-1e-05,-1e-05,-1e-05,1e-05,1e-05,1,20.0
2785,-1e-05,-2e-05,4e-05,-1e-05,-1e-05,-1e-05,1e-05,1e-05,1,20.0
2786,-1e-05,-2e-05,4e-05,-1e-05,-1e-05,-1e-05,1e-05,1e-05,1,20.0
2788,-3e-05,-2e-05,-1e-05,-6e-05,0.00014,-4e-05,1e-05,-2e-05,1,20.0
2789,-3e-05,-2e-05,-1e-05,-6e-05,0.00014,-4e-05,1e-05,-2e-05,1,20.0
2790,-3e-05,-2e-05,-1e-05,-6e-05,0.00014,-4e-05,1e-05,-2e-05,1,20.0
2791,-3e-05,-2e-05,-1e-05,-6e-05,0.00014,-4e-05,1e-05,-2e-05,1,20.0
2792,-3e-05,-2e-05,-1e-05,-6e-05,0.00014,-4e-05,1e-05,-2e-05,1,20.0
2793,-3e-05,-2e-05,-1e-05,-6e-05,0.00014,-4e-05,1e-05,-2e-05,1,20.0
2794,-3e-05,-2e-05,-1e-05,-6e-05,0.00014,-4e-05,1e-05,-2e-05,1,20.0
2795,-3e-05,-2e-05,-1e-05,-6e-05,0.00014,-4e-05,1e-05,-2e-05,1,20.0
2796,-3e-05,-2e-05,-1e-05,-6e-05,0.00014,-4e-05,1e-05,-2e-05,1,20.0
2797,-3e-05,-2e-05,-1e-05,-6e-05,0.00014,-4e-05,1e-05,-2e-05,1,20.0
2798,-3e-05,-2e-05,-1e-05,-6e-05,0.00014,-4e-05,1e-05,-2e-05,1,20.0
2799,-3e-05,-2e-05,-1e-05,-6e-05,0.00014,-4e-05,1e-05,-2e-05,1,20.0
2800,-3e-05,-2e-05,-1e-05,-6e-05,0.00014,-4e-05,1e-05,-2e-05,1,20.0
2801,-3e-05,-2e-05,-1e-05,-6e-05,0.00014,-4e-05,1e-05,-2e-05,1,20.0
2802,-3e-05,-2e-05,-1e-05,-6e-05,0.00014,-4e-05,1e-05,-2e-05,1,20.0
2803,-2e-05,2e-05,2e-05,1e-05,-0.00012,2e-05,-1e-05,0.0,1,20.0
2804,-1e-05,-1e-05,-5e-05,-7e-05,0.00011,0.0,0.0,-3e-05,1,20.0
2805,-2e-05,-1e-05,0.0,4e-05,3e-05,-1e-05,-1e-05,-4e-05,1,20.0
2806,-2e-05,-1e-05,0.0,4e-05,3e-05,-1e-05,-1e-05,-4e-05,1,20.0
2807,-2e-05,-1e-05,0.0,4e-05,3e-05,-1e-05,-1e-05,-4e-05,1,20.0
2808,-2e-05,-1e-05,0.0,4e-05,3e-05,-1e-05,-1e-05,-4e-05,1,20.0
2809,-2e-05,-1e-05,0.0,4e-05,3e-05,-1e-05,-1e-05,-4e-05,1,20.0
2810,-2e-05,-1e-05,0.0,4e-05,3e-05,-1e-05,-1e-05,-4e-05,1,20.0
2811,-2e-05,-1e-05,0.0,4e-05,3e-05,-1e-05,-1e-05,-4e-05,1,20.0
2812,-2e-05,-1e-05,0.0,4e-05,3e-05,-1e-05,-1e-05,-4e-05,1,20.0
2813,-2e-05,-1e-05,0.0,4e-05,3e-05,-1e-05,-1e-05,-4e-05,1,20.0
2814,-2e-05,-1e-05,0.0,4e-05,3e-05,-1e-05,-1e-05,-4e-05,1,20.0
2815,-2e-05,-1e-05,0.0,4e-05,3e-05,-1e-05,-1e-05,-4e-05,1,20.0
2816,-2e-05,-1e-05,0.0,4e-05,3e-05,-1e-05,-1e-05,-4e-05,1,20.0
2817,-2e-05,-1e-05,0.0,4e-05,3e-05,-1e-05,-1e-05,-4e-05,1,20.0
2818,-2e-05,-1e-05,0.0,4e-05,3e-05,-1e-05,-1e-05,-4e-05,1,20.0
2819,-2e-05,-1e-05,0.0,4e-05,3e-05,-1e-05,-1e-05,-4e-05,1,20.0
2820,-2e-05,-1e-05,0.0,4e-05,3e-05,-1e-05,-1e-05,-4e-05,1,20.0
2821,-2e-05,-1e-05,0.0,4e-05,3e-05,-1e-05,-1e-05,-4e-05,1,20.0
2822,-2e-05,-1e-05,0.0,4e-05,3e-05,-1e-05,-1e-05,-4e-05,1,20.0
2823,-2e-05,-1e-05,0.0,4e-05,3e-05,-1e-05,-1e-05,-4e-05,1,20.0
2824,-2e-05,-1e-05,0.0,4e-05,3e-05,-1e-05,-1e-05,-4e-05,1,20.0
2825,-4e-05,-3e-05,-2e-05,4e-05,5e-05,0.0,0.0,-1e-05,1,20.0
2826,-2e-05,-1e-05,2e-05,-7e-05,-1e-05,-4e-05,-2e-05,-2e-05,1,20.0
2827,-3e-05,-2e-05,-8e-05,-4e-05,0.00011,-6e-05,2e-05,-5e-05,1,20.0
2828,-3e-05,-2e-05,-8e-05,-4e-05,0.00011,-6e-05,2e-05,-5e-05,1,20.0
2829,-3e-05,-2e-05,-8e-05,-4e-05,0.00011,-6e-05,2e-05,-5e-05,1,20.0
2830,-3e-05,-2e-05,-8e-05,-4e-05,0.00011,-6e-05,2e-05,-5e-05,1,20.0
2831,-3e-05,-2e-05,-8e-05,-4e-05,0.00011,-6e-05,2e-05,-5e-05,1,20.0
2832,-3e-05,-2e-05,-8e-05,-4e-05,0.00011,-6e-05,2e-05,-5e-05,1,20.0
2833,-3e-05,-2e-05,-8e-05,-4e-05,0.00011,-6e-05,2e-05,-5e-05,1,20.0
2834,-3e-05,-2e-05,-8e-05,-4e-05,0.00011,-6e-05,2e-05,-5e-05,1,20.0
2835,-3e-05,-2e-05,-8e-05,-4e-05,0.00011,-6e-05,2e-05,-5e-05,1,20.0
2836,-3e-05,-2e-05,-8e-05,-4e-05,0.00011,-6e-05,2e-05,-5e-05,1,20.0
2838,-3e-05,-2e-05,-8e-05,-4e-05,0.00011,-6e-05,2e-05,-5e-05,1,20.0
2839,-3e-05,-2e-05,-8e-05,-4e-05,0.00011,-6e-05,2e-05,-5e-05,1,20.0
2840,1e-05,1e-05,3e-05,3e-05,1e-05,-2e-05,-1e-05,1e-05,1,20.0
2841,1e-05,1e-05,3e-05,3e-05,1e-05,-2e-05,-1e-05,1e-05,1,20.0
2842,1e-05,1e-05,3e-05,3e-05,1e-05,-2e-05,-1e-05,1e-05,1,20.0
2843,1e-05,1e-05,3e-05,3e-05,1e-05,-2e-05,-1e-05,1e-05,1,20.0
2844,1e-05,1e-05,3e-05,3e-05,1e-05,-2e-05,-1e-05,1e-05,1,20.0
2845,1e-05,1e-05,3e-05,3e-05,1e-05,-2e-05,-1e-05,1e-05,1,20.0
2846,1e-05,1e-05,3e-05,3e-05,1e-05,-2e-05,-1e-05,1e-05,1,20.0
2847,-4e-05,-6e-05,-0.0001,-6e-05,6e-05,-1e-05,0.0,0.0,1,20.0
2848,-4e-05,-6e-05,-0.0001,-6e-05,6e-05,-1e-05,0.0,0.0,1,20.0
2849,-4e-05,-6e-05,-0.0001,-6e-05,6e-05,-1e-05,0.0,0.0,1,20.0
2850,-4e-05,-6e-05,-0.0001,-6e-05,6e-05,-1e-05,0.0,0.0,1,20.0
2851,-4e-05,-6e-05,-0.0001,-6e-05,6e-05,-1e-05,0.0,0.0,1,20.0
2852,-4e-05,-6e-05,-0.0001,-6e-05,6e-05,-1e-05,0.0,0.0,1,20.0
2853,-4e-05,-6e-05,-0.0001,-6e-05,6e-05,-1e-05,0.0,0.0,1,20.0
2854,-4e-05,-6e-05,-0.0001,-6e-05,6e-05,-1e-05,0.0,0.0,1,20.0
2855,-4e-05,-6e-05,-0.0001,-6e-05,6e-05,-1e-05,0.0,0.0,1,20.0
2856,-4e-05,-6e-05,-0.0001,-6e-05,6e-05,-1e-05,0.0,0.0,1,20.0
2857,-4e-05,-6e-05,-0.0001,-6e-05,6e-05,-1e-05,0.0,0.0,1,20.0
2858,-4e-05,-6e-05,-0.0001,-6e-05,6e-05,-1e-05,0.0,0.0,1,20.0
2859,-4e-05,-6e-05,-0.0001,-6e-05,6e-05,-1e-05,0.0,0.0,1,20.0
2860,-4e-05,-6e-05,-0.0001,-6e-05,6e-05,-1e-05,0.0,0.0,1,20.0
2861,-4e-05,-6e-05,-0.0001,-6e-05,6e-05,-1e-05,0.0,0.0,1,20.0
2862,-4e-05,-6e-05,-0.0001,-6e-05,6e-05,-1e-05,0.0,0.0,1,20.0
2863,2e-05,3e-05,2e-05,-2e-05,6e-05,-1e-05,0.0,0.0,1,20.0
2864,1e-05,4e-05,0.0001,4e-05,-4e-05,1e-05,-2e-05,1e-05,1,20.0
2865,0.0,2e-05,2e-05,-2e-05,-0.00013,3e-05,0.0,0.0,1,20.0
2866,0.0,2e-05,2e-05,-2e-05,-0.00013,3e-05,0.0,0.0,1,20.0
2867,0.0,2e-05,2e-05,-2e-05,-0.00013,3e-05,0.0,0.0,1,20.0
2868,0.0,2e-05,2e-05,-2e-05,-0.00013,3e-05,0.0,0.0,1,20.0
2869,0.0,2e-05,2e-05,-2e-05,-0.00013,3e-05,0.0,0.0,1,20.0
2870,0.0,2e-05,2e-05,-2e-05,-0.00013,3e-05,0.0,0.0,1,20.0
2871,0.0,2e-05,2e-05,-2e-05,-0.00013,3e-05,0.0,0.0,1,20.0
2872,0.0,2e-05,2e-05,-2e-05,-0.00013,3e-05,0.0,0.0,1,20.0
2873,0.0,2e-05,2e-05,-2e-05,-0.00013,3e-05,0.0,0.0,1,20.0
2874,0.0,2e-05,2e-05,-2e-05,-0.00013,3e-05,0.0,0.0,1,20.0
2875,0.0,2e-05,2e-05,-2e-05,-0.00013,3e-05,0.0,0.0,1,20.0
2876,0.0,2e-05,2e-05,-2e-05,-0.00013,3e-05,0.0,0.0,1,20.0
2877,0.0,2e-05,2e-05,-2e-05,-0.00013,3e-05,0.0,0.0,1,20.0
2878,0.0,2e-05,2e-05,-2e-05,-0.00013,3e-05,0.0,0.0,1,20.0
2879,0.0,2e-05,2e-05,-2e-05,-0.00013,3e-05,0.0,0.0,1,20.0
2880,0.0,2e-05,2e-05,-2e-05,-0.00013,3e-05,0.0,0.0,1,20.0
2881,0.0,2e-05,2e-05,-2e-05,-0.00013,3e-05,0.0,0.0,1,20.0
2882,0.0,2e-05,2e-05,-2e-05,-0.00013,3e-05,0.0,0.0,1,20.0
2883,0.0,2e-05,2e-05,-2e-05,-0.00013,3e-05,0.0,0.0,1,20.0
2884,0.0,2e-05,2e-05,-2e-05,-0.00013,3e-05,0.0,0.0,1,20.0
2885,-2e-05,1e-05,0.0,-1e-05,4e-05,-3e-05,-1e-05,1e-05,1,20.0
2886,-3e-05,-5e-05,-0.0001,-0.00011,-0.00026,-6e-05,0.0,-3e-05,1,20.0
2888,0.0,-1e-05,5e-05,-2e-05,-0.00016,0.0,-4e-05,-1e-05,1,20.0
2889,0.0,-1e-05,5e-05,-2e-05,-0.00016,0.0,-4e-05,-1e-05,1,20.0
2890,0.0,-1e-05,5e-05,-2e-05,-0.00016,0.0,-4e-05,-1e-05,1,20.0
2891,0.0,-1e-05,5e-05,-2e-05,-0.00016,0.0,-4e-05,-1e-05,1,20.0
2892,0.0,-1e-05,5e-05,-2e-05,-0.00016,0.0,-4e-05,-1e-05,1,20.0
2893,0.0,-1e-05,5e-05,-2e-05,-0.00016,0.0,-4e-05,-1e-05,1,20.0
2894,0.0,-1e-05,5e-05,-2e-05,-0.00016,0.0,-4e-05,-1e-05,1,20.0
2895,0.0,-1e-05,5e-05,-2e-05,-0.00016,0.0,-4e-05,-1e-05,1,20.0
2896,0.0,-1e-05,5e-05,-2e-05,-0.00016,0.0,-4e-05,-1e-05,1,20.0
2897,0.0,-1e-05,5e-05,-2e-05,-0.00016,0.0,-4e-05,-1e-05,1,20.0
2898,0.0,-1e-05,5e-05,-2e-05,-0.00016,0.0,-4e-05,-1e-05,1,20.0
2899,0.0,-1e-05,5e-05,-2e-05,-0.00016,0.0,-4e-05,-1e-05,1,20.0
2900,-2e-05,0.0,4e-05,4e-05,0.00017,-8e-05,0.0,-5e-05,1,20.0
2901,-2e-05,0.0,4e-05,4e-05,0.00017,-8e-05,0.0,-5e-05,1,20.0
2903,-2e-05,0.0,4e-05,4e-05,0.00017,-8e-05,0.0,-5e-05,1,20.0
2904,-2e-05,0.0,4e-05,4e-05,0.00017,-8e-05,0.0,-5e-05,1,20.0
2905,-2e-05,0.0,4e-05,4e-05,0.00017,-8e-05,0.0,-5e-05,1,20.0
2906,-2e-05,0.0,4e-05,4e-05,0.00017,-8e-05,0.0,-5e-05,1,20.0
2907,-1e-05,0.0,0.0,2e-05,0.00016,5e-05,0.0,-2e-05,1,20.0
2908,-1e-05,0.0,0.0,2e-05,0.00016,5e-05,0.0,-2e-05,1,20.0
2909,-1e-05,0.0,0.0,2e-05,0.00016,5e-05,0.0,-2e-05,1,20.0
2910,-1e-05,0.0,0.0,2e-05,0.00016,5e-05,0.0,-2e-05,1,20.0
2911,-1e-05,0.0,0.0,2e-05,0.00016,5e-05,0.0,-2e-05,1,20.0
2912,-1e-05,0.0,0.0,2e-05,0.00016,5e-05,0.0,-2e-05,1,20.0
2913,-1e-05,0.0,0.0,2e-05,0.00016,5e-05,0.0,-2e-05,1,20.0
2914,-1e-05,0.0,0.0,2e-05,0.00016,5e-05,0.0,-2e-05,1,20.0
2915,-1e-05,0.0,0.0,2e-05,0.00016,5e-05,0.0,-2e-05,1,20.0
2916,-1e-05,0.0,0.0,2e-05,0.00016,5e-05,0.0,-2e-05,1,20.0
2917,-1e-05,0.0,0.0,2e-05,0.00016,5e-05,0.0,-2e-05,1,20.0
2918,-1e-05,0.0,0.0,2e-05,0.00016,5e-05,0.0,-2e-05,1,20.0
2919,-1e-05,0.0,0.0,2e-05,0.00016,5e-05,0.0,-2e-05,1,20.0
2920,-1e-05,0.0,0.0,2e-05,0.00016,5e-05,0.0,-2e-05,1,20.0
2921,-1e-05,0.0,0.0,2e-05,0.00016,5e-05,0.0,-2e-05,1,20.0
2922,-1e-05,0.0,0.0,2e-05,0.00016,5e-05,0.0,-2e-05,1,20.0
2923,-1e-05,-2e-05,-0.0001,-4e-05,-4e-05,0.0,-2e-05,2e-05,1,20.0
2924,-5e-05,-6e-05,-5e-05,-9e-05,-1e-05,-4e-05,-1e-05,-6e-05,1,20.0
2925,0.0,0.0,-2e-05,3e-05,-6e-05,-0.00011,-2e-05,-2e-05,1,20.0
2926,0.0,0.0,-2e-05,3e-05,-6e-05,-0.00011,-2e-05,-2e-05,1,20.0
2927,0.0,0.0,-2e-05,3e-05,-6e-05,-0.00011,-2e-05,-2e-05,1,20.0
2928,0.0,0.0,-2e-05,3e-05,-6e-05,-0.00011,-2e-05,-2e-05,1,20.0
2929,0.0,0.0,-2e-05,3e-05,-6e-05,-0.00011,-2e-05,-2e-05,1,20.0
2930,0.0,0.0,-2e-05,3e-05,-6e-05,-0.00011,-2e-05,-2e-05,1,20.0
2931,0.0,0.0,-2e-05,3e-05,-6e-05,-0.00011,-2e-05,-2e-05,1,20.0
2932,0.0,0.0,-2e-05,3e-05,-6e-05,-0.00011,-2e-05,-2e-05,1,20.0
2933,0.0,0.0,-2e-05,3e-05,-6e-05,-0.00011,-2e-05,-2e-05,1,20.0
2934,0.0,0.0,-2e-05,3e-05,-6e-05,-0.00011,-2e-05,-2e-05,1,20.0
2935,0.0,0.0,-2e-05,3e-05,-6e-05,-0.00011,-2e-05,-2e-05,1,20.0
2936,0.0,0.0,-2e-05,3e-05,-6e-05,-0.00011,-2e-05,-2e-05,1,20.0
2938,0.0,0.0,-2e-05,3e-05,-6e-05,-0.00011,-2e-05,-2e-05,1,20.0
2939,0.0,0.0,-2e-05,3e-05,-6e-05,-0.00011,-2e-05,-2e-05,1,20.0
2940,0.0,0.0,-2e-05,3e-05,-6e-05,-0.00011,-2e-05,-2e-05,1,20.0
2941,0.0,0.0,-2e-05,3e-05,-6e-05,-0.00011,-2e-05,-2e-05,1,20.0
2942,0.0,0.0,-2e-05,3e-05,-6e-05,-0.00011,-2e-05,-2e-05,1,20.0
2943,0.0,0.0,-2e-05,3e-05,-6e-05,-0.00011,-2e-05,-2e-05,1,20.0
2944,0.0,0.0,-2e-05,3e-05,-6e-05,-0.00011,-2e-05,-2e-05,1,20.0
2945,0.0,0.0,-2e-05,3e-05,-6e-05,-0.00011,-2e-05,-2e-05,1,20.0
2946,0.0,0.0,-2e-05,3e-05,-6e-05,-0.00011,-2e-05,-2e-05,1,20.0
2947,0.0,0.0,-2e-05,3e-05,-6e-05,-0.00011,-2e-05,-2e-05,1,20.0
2948,0.0,0.0,-2e-05,3e-05,-6e-05,-0.00011,-2e-05,-2e-05,1,20.0
2949,0.0,0.0,-2e-05,3e-05,-6e-05,-0.00011,-2e-05,-2e-05,1,20.0
2950,0.0,0.0,-2e-05,3e-05,-6e-05,-0.00011,-2e-05,-2e-05,1,20.0
2951,0.0,0.0,-2e-05,3e-05,-6e-05,-0.00011,-2e-05,-2e-05,1,20.0
2952,0.0,0.0,-2e-05,3e-05,-6e-05,-0.00011,-2e-05,-2e-05,1,20.0
2953,3e-05,-3e-05,-0.00012,-4e-05,0.00017,4e-05,-3e-05,-1e-05,1,20.0
2954,-2e-05,1e-05,7e-05,3e-05,0.0,-2e-05,-1e-05,0.0,1,20.0
2955,0.0,2e-05,0.0,-5e-05,0.00016,6e-05,-1e-05,-2e-05,1,20.0
2956,0.0,2e-05,0.0,-5e-05,0.00016,6e-05,-1e-05,-2e-05,1,20.0
2957,0.0,2e-05,0.0,-5e-05,0.00016,6e-05,-1e-05,-2e-05,1,20.0
2958,0.0,2e-05,0.0,-5e-05,0.00016,6e-05,-1e-05,-2e-05,1,20.0
2959,0.0,2e-05,0.0,-5e-05,0.00016,6e-05,-1e-05,-2e-05,1,20.0
2960,-3e-05,2e-05,2e-05,3e-05,9e-05,-2e-05,1e-05,-1e-05,1,20.0
2961,-3e-05,2e-05,2e-05,3e-05,9e-05,-2e-05,1e-05,-1e-05,1,20.0
2962,-3e-05,2e-05,2e-05,3e-05,9e-05,-2e-05,1e-05,-1e-05,1,20.0
2963,-3e-05,2e-05,2e-05,3e-05,9e-05,-2e-05,1e-05,-1e-05,1,20.0
2964,-3e-05,2e-05,2e-05,3e-05,9e-05,-2e-05,1e-05,-1e-05,1,20.0
2965,-3e-05,2e-05,2e-05,3e-05,9e-05,-2e-05,1e-05,-1e-05,1,20.0
2966,-3e-05,2e-05,2e-05,3e-05,9e-05,-2e-05,1e-05,-1e-05,1,20.0
2967,-2e-05,-6e-05,-9e-05,-6e-05,-6e-05,-6e-05,2e-05,0.0,1,20.0
2968,-2e-05,-6e-05,-9e-05,-6e-05,-6e-05,-6e-05,2e-05,0.0,1,20.0
2969,-2e-05,-6e-05,-9e-05,-6e-05,-6e-05,-6e-05,2e-05,0.0,1,20.0
2970,-2e-05,-6e-05,-9e-05,-6e-05,-6e-05,-6e-05,2e-05,0.0,1,20.0
2971,-2e-05,-6e-05,-9e-05,-6e-05,-6e-05,-6e-05,2e-05,0.0,1,20.0
2972,-2e-05,-6e-05,-9e-05,-6e-05,-6e-05,-6e-05,2e-05,0.0,1,20.0
2973,-2e-05,-6e-05,-9e-05,-6e-05,-6e-05,-6e-05,2e-05,0.0,1,20.0
2974,-2e-05,-6e-05,-9e-05,-6e-05,-6e-05,-6e-05,2e-05,0.0,1,20.0
2975,-2e-05,-6e-05,-9e-05,-6e-05,-6e-05,-6e-05,2e-05,0.0,1,20.0
2976,-2e-05,-6e-05,-9e-05,-6e-05,-6e-05,-6e-05,2e-05,0.0,1,20.0
2977,-2e-05,-6e-05,-9e-05,-6e-05,-6e-05,-6e-05,2e-05,0.0,1,20.0
2978,-2e-05,-6e-05,-9e-05,-6e-05,-6e-05,-6e-05,2e-05,0.0,1,20.0
2979,-2e-05,-6e-05,-9e-05,-6e-05,-6e-05,-6e-05,2e-05,0.0,1,20.0
2980,-2e-05,-6e-05,-9e-05,-6e-05,-6e-05,-6e-05,2e-05,0.0,1,20.0
2981,-2e-05,-6e-05,-9e-05,-6e-05,-6e-05,-6e-05,2e-05,0.0,1,20.0
2984,-2e-05,-6e-05,-9e-05,-6e-05,-6e-05,-6e-05,2e-05,0.0,1,20.0
2985,0.0,2e-05,1e-05,6e-05,0.00011,4e-05,-4e-05,-2e-05,1,20.0
2986,0.0,2e-05,1e-05,6e-05,0.00011,4e-05,-4e-05,-2e-05,1,20.0
2988,0.0,2e-05,1e-05,6e-05,0.00011,4e-05,-4e-05,-2e-05,1,20.0
2989,1e-05,2e-05,-1e-05,-1e-05,-0.00014,0.0,4e-05,-1e-05,1,20.0
2990,1e-05,2e-05,-1e-05,-1e-05,-0.00014,0.0,4e-05,-1e-05,1,20.0
2991,1e-05,2e-05,-1e-05,-1e-05,-0.00014,0.0,4e-05,-1e-05,1,20.0
2992,1e-05,2e-05,-1e-05,-1e-05,-0.00014,0.0,4e-05,-1e-05,1,20.0
2993,1e-05,2e-05,-1e-05,-1e-05,-0.00014,0.0,4e-05,-1e-05,1,20.0
2995,1e-05,2e-05,-1e-05,-1e-05,-0.00014,0.0,4e-05,-1e-05,1,20.0
2996,1e-05,2e-05,-1e-05,-1e-05,-0.00014,0.0,4e-05,-1e-05,1,20.0
2997,1e-05,2e-05,-1e-05,-1e-05,-0.00014,0.0,4e-05,-1e-05,1,20.0
2998,1e-05,2e-05,-1e-05,-1e-05,-0.00014,0.0,4e-05,-1e-05,1,20.0
2999,1e-05,2e-05,-1e-05,-1e-05,-0.00014,0.0,4e-05,-1e-05,1,20.0
3000,1e-05,2e-05,-1e-05,-1e-05,-0.00014,0.0,4e-05,-1e-05,1,20.0
3001,1e-05,2e-05,-1e-05,-1e-05,-0.00014,0.0,4e-05,-1e-05,1,20.0
3002,1e-05,2e-05,-1e-05,-1e-05,-0.00014,0.0,4e-05,-1e-05,1,20.0
3003,1e-05,2e-05,-1e-05,-1e-05,-0.00014,0.0,4e-05,-1e-05,1,20.0
3004,1e-05,2e-05,-1e-05,-1e-05,-0.00014,0.0,4e-05,-1e-05,1,20.0
3005,1e-05,0.0,-5e-05,-2e-05,-1e-05,0.0,-3e-05,-2e-05,1,20.0
3006,-1e-05,0.0,3e-05,-2e-05,-1e-05,-2e-05,4e-05,-1e-05,1,20.0
3007,1e-05,-2e-05,5e-05,7e-05,0.00028,2e-05,0.0,2e-05,1,20.0
3008,1e-05,-2e-05,5e-05,7e-05,0.00028,2e-05,0.0,2e-05,1,20.0
3009,1e-05,-2e-05,5e-05,7e-05,0.00028,2e-05,0.0,2e-05,1,20.0
3010,1e-05,-2e-05,5e-05,7e-05,0.00028,2e-05,0.0,2e-05,1,20.0
3011,1e-05,-2e-05,5e-05,7e-05,0.00028,2e-05,0.0,2e-05,1,20.0
3012,1e-05,-2e-05,5e-05,7e-05,0.00028,2e-05,0.0,2e-05,1,20.0
3013,1e-05,-2e-05,5e-05,7e-05,0.00028,2e-05,0.0,2e-05,1,20.0
3014,1e-05,-2e-05,5e-05,7e-05,0.00028,2e-05,0.0,2e-05,1,20.0
3015,1e-05,-2e-05,5e-05,7e-05,0.00028,2e-05,0.0,2e-05,1,20.0
3016,1e-05,-2e-05,5e-05,7e-05,0.00028,2e-05,0.0,2e-05,1,20.0
3017,1e-05,-2e-05,5e-05,7e-05,0.00028,2e-05,0.0,2e-05,1,20.0
3018,1e-05,-2e-05,5e-05,7e-05,0.00028,2e-05,0.0,2e-05,1,20.0
3019,1e-05,-2e-05,5e-05,7e-05,0.00028,2e-05,0.0,2e-05,1,20.0
3020,-1e-05,0.0,1e-05,2e-05,-0.00011,5e-05,-2e-05,1e-05,1,20.0
3021,-1e-05,0.0,1e-05,2e-05,-0.00011,5e-05,-2e-05,1e-05,1,20.0
3022,-1e-05,0.0,1e-05,2e-05,-0.00011,5e-05,-2e-05,1e-05,1,20.0
3023,-1e-05,0.0,1e-05,2e-05,-0.00011,5e-05,-2e-05,1e-05,1,20.0
3024,-1e-05,0.0,1e-05,2e-05,-0.00011,5e-05,-2e-05,1e-05,1,20.0
3025,-1e-05,0.0,1e-05,2e-05,-0.00011,5e-05,-2e-05,1e-05,1,20.0
3026,-1e-05,0.0,2e-05,-2e-05,-1e-05,-0.00017,2e-05,-0.0001,1,20.0
3027,-1e-05,0.0,2e-05,-2e-05,-1e-05,-0.00017,2e-05,-0.0001,1,20.0
3028,-1e-05,0.0,2e-05,-2e-05,-1e-05,-0.00017,2e-05,-0.0001,1,20.0
3029,-1e-05,0.0,2e-05,-2e-05,-1e-05,-0.00017,2e-05,-0.0001,1,20.0
3030,-1e-05,0.0,2e-05,-2e-05,-1e-05,-0.00017,2e-05,-0.0001,1,20.0
3031,-1e-05,0.0,2e-05,-2e-05,-1e-05,-0.00017,2e-05,-0.0001,1,20.0
3032,-1e-05,0.0,2e-05,-2e-05,-1e-05,-0.00017,2e-05,-0.0001,1,20.0
3033,-1e-05,0.0,2e-05,-2e-05,-1e-05,-0.00017,2e-05,-0.0001,1,20.0
3034,-1e-05,0.0,2e-05,-2e-05,-1e-05,-0.00017,2e-05,-0.0001,1,20.0
3035,-1e-05,0.0,2e-05,-2e-05,-1e-05,-0.00017,2e-05,-0.0001,1,20.0
3036,-1e-05,0.0,2e-05,-2e-05,-1e-05,-0.00017,2e-05,-0.0001,1,20.0
3039,-1e-05,0.0,2e-05,-2e-05,-1e-05,-0.00017,2e-05,-0.0001,1,20.0
3040,-1e-05,0.0,2e-05,-2e-05,-1e-05,-0.00017,2e-05,-0.0001,1,20.0
3041,-1e-05,0.0,2e-05,-2e-05,-1e-05,-0.00017,2e-05,-0.0001,1,20.0
3043,-4e-05,-4e-05,-1e-05,1e-05,8e-05,4e-05,-1e-05,3e-05,1,20.0
3044,-4e-05,-4e-05,-1e-05,1e-05,8e-05,4e-05,-1e-05,3e-05,1,20.0
3045,0.0,-2e-05,0.0,-2e-05,-0.00013,4e-05,-5e-05,0.0,1,20.0
3046,0.0,-2e-05,0.0,-2e-05,-0.00013,4e-05,-5e-05,0.0,1,20.0
3047,0.0,-2e-05,0.0,-2e-05,-0.00013,4e-05,-5e-05,0.0,1,20.0
3048,0.0,-2e-05,0.0,-2e-05,-0.00013,4e-05,-5e-05,0.0,1,20.0
3049,0.0,-2e-05,0.0,-2e-05,-0.00013,4e-05,-5e-05,0.0,1,20.0
3050,0.0,-2e-05,0.0,-2e-05,-0.00013,4e-05,-5e-05,0.0,1,20.0
3051,0.0,-2e-05,0.0,-2e-05,-0.00013,4e-05,-5e-05,0.0,1,20.0
3052,0.0,-2e-05,0.0,-2e-05,-0.00013,4e-05,-5e-05,0.0,1,20.0
3053,0.0,-2e-05,0.0,-2e-05,-0.00013,4e-05,-5e-05,0.0,1,20.0
3054,0.0,-2e-05,0.0,-2e-05,-0.00013,4e-05,-5e-05,0.0,1,20.0
3055,0.0,-2e-05,0.0,-2e-05,-0.00013,4e-05,-5e-05,0.0,1,20.0
3056,0.0,-2e-05,0.0,-2e-05,-0.00013,4e-05,-5e-05,0.0,1,20.0
3057,0.0,-2e-05,0.0,-2e-05,-0.00013,4e-05,-5e-05,0.0,1,20.0
3058,0.0,-2e-05,0.0,-2e-05,-0.00013,4e-05,-5e-05,0.0,1,20.0
3059,0.0,-2e-05,0.0,-2e-05,-0.00013,4e-05,-5e-05,0.0,1,20.0
3060,0.0,-2e-05,0.0,-2e-05,-0.00013,4e-05,-5e-05,0.0,1,20.0
3061,0.0,-2e-05,0.0,-2e-05,-0.00013,4e-05,-5e-05,0.0,1,20.0
3062,0.0,-2e-05,0.0,-2e-05,-0.00013,4e-05,-5e-05,0.0,1,20.0
3063,0.0,-2e-05,0.0,-2e-05,-0.00013,4e-05,-5e-05,0.0,1,20.0
3064,0.0,-2e-05,0.0,-2e-05,-0.00013,4e-05,-5e-05,0.0,1,20.0
3065,0.0,-1e-05,-2e-05,-0.0001,-0.00016,-2e-05,0.0,4e-05,1,20.0
3066,0.0,-1e-05,-2e-05,-0.0001,-0.00016,-2e-05,0.0,4e-05,1,20.0
3067,-3e-05,-8e-05,-0.00012,-6e-05,0.00012,-2e-05,0.0,-4e-05,1,20.0
3068,-1e-05,1e-05,-1e-05,0.0,-0.00015,2e-05,-1e-05,-2e-05,1,20.0
3069,-1e-05,1e-05,-1e-05,0.0,-0.00015,2e-05,-1e-05,-2e-05,1,20.0
3070,-1e-05,1e-05,-1e-05,0.0,-0.00015,2e-05,-1e-05,-2e-05,1,20.0
3071,-1e-05,1e-05,-1e-05,0.0,-0.00015,2e-05,-1e-05,-2e-05,1,20.0
3072,-1e-05,1e-05,-1e-05,0.0,-0.00015,2e-05,-1e-05,-2e-05,1,20.0
3073,-1e-05,1e-05,-1e-05,0.0,-0.00015,2e-05,-1e-05,-2e-05,1,20.0
3074,-1e-05,1e-05,-1e-05,0.0,-0.00015,2e-05,-1e-05,-2e-05,1,20.0
3075,-1e-05,1e-05,-1e-05,0.0,-0.00015,2e-05,-1e-05,-2e-05,1,20.0
3076,-1e-05,1e-05,-1e-05,0.0,-0.00015,2e-05,-1e-05,-2e-05,1,20.0
4909,-1e-05,-4e-05,-0.00012,-0.00025,-0.00012,-0.00037,7e-05,3e-05,2,20.0
4910,2e-05,-1e-05,-7e-05,-0.00011,0.00012,-0.00035,-0.00015,-1e-05,2,20.0
