time,channel1,channel2,channel3,channel4,channel5,channel6,channel7,channel8,class,label
663,-1e-05,0.0,1e-05,-2e-05,-2e-05,-1e-05,-1e-05,-1e-05,1,27.0
664,-1e-05,0.0,1e-05,-2e-05,-2e-05,-1e-05,-1e-05,-1e-05,1,27.0
665,-1e-05,0.0,1e-05,-2e-05,-2e-05,-1e-05,-1e-05,-1e-05,1,27.0
666,-1e-05,0.0,3e-05,-1e-05,0.0,-1e-05,-2e-05,0.0,1,27.0
667,-1e-05,0.0,3e-05,-1e-05,0.0,-1e-05,-2e-05,0.0,1,27.0
668,-1e-05,-1e-05,-1e-05,0.0,0.0,1e-05,-1e-05,-2e-05,1,27.0
669,-1e-05,-1e-05,-1e-05,0.0,0.0,1e-05,-1e-05,-2e-05,1,27.0
670,-1e-05,-1e-05,-1e-05,0.0,0.0,1e-05,-1e-05,-2e-05,1,27.0
671,-1e-05,-1e-05,-1e-05,0.0,0.0,1e-05,-1e-05,-2e-05,1,27.0
672,-1e-05,-1e-05,-1e-05,0.0,0.0,1e-05,-1e-05,-2e-05,1,27.0
673,-1e-05,-1e-05,-1e-05,0.0,0.0,1e-05,-1e-05,-2e-05,1,27.0
674,-1e-05,-1e-05,-1e-05,0.0,0.0,1e-05,-1e-05,-2e-05,1,27.0
675,-1e-05,-1e-05,-1e-05,0.0,0.0,1e-05,-1e-05,-2e-05,1,27.0
676,-1e-05,-1e-05,-1e-05,0.0,0.0,1e-05,-1e-05,-2e-05,1,27.0
677,-1e-05,-1e-05,-1e-05,0.0,0.0,1e-05,-1e-05,-2e-05,1,27.0
678,-1e-05,-1e-05,-1e-05,0.0,0.0,1e-05,-1e-05,-2e-05,1,27.0
679,-1e-05,-2e-05,0.0,0.0,-4e-05,-2e-05,0.0,-1e-05,1,27.0
680,-1e-05,-2e-05,0.0,0.0,-4e-05,-2e-05,0.0,-1e-05,1,27.0
681,-1e-05,-2e-05,0.0,0.0,-4e-05,-2e-05,0.0,-1e-05,1,27.0
682,-1e-05,-2e-05,0.0,0.0,-4e-05,-2e-05,0.0,-1e-05,1,27.0
683,-1e-05,-2e-05,0.0,0.0,-4e-05,-2e-05,0.0,-1e-05,1,27.0
684,-1e-05,-2e-05,0.0,0.0,-4e-05,-2e-05,0.0,-1e-05,1,27.0
685,-1e-05,-2e-05,0.0,0.0,-4e-05,-2e-05,0.0,-1e-05,1,27.0
686,-1e-05,-2e-05,0.0,0.0,-4e-05,-2e-05,0.0,-1e-05,1,27.0
688,-1e-05,-2e-05,0.0,0.0,-4e-05,-2e-05,0.0,-1e-05,1,27.0
690,-1e-05,-2e-05,0.0,0.0,-4e-05,-2e-05,0.0,-1e-05,1,27.0
691,-1e-05,-2e-05,0.0,0.0,-4e-05,-2e-05,0.0,-1e-05,1,27.0
692,-1e-05,-2e-05,0.0,0.0,-4e-05,-2e-05,0.0,-1e-05,1,27.0
693,-1e-05,-2e-05,0.0,0.0,-4e-05,-2e-05,0.0,-1e-05,1,27.0
694,-1e-05,-2e-05,0.0,0.0,-4e-05,-2e-05,0.0,-1e-05,1,27.0
695,-1e-05,-2e-05,0.0,0.0,-4e-05,-2e-05,0.0,-1e-05,1,27.0
696,-1e-05,-2e-05,0.0,0.0,-4e-05,-2e-05,0.0,-1e-05,1,27.0
697,-1e-05,-2e-05,0.0,0.0,-4e-05,-2e-05,0.0,-1e-05,1,27.0
698,-1e-05,-2e-05,0.0,0.0,-4e-05,-2e-05,0.0,-1e-05,1,27.0
699,-1e-05,-2e-05,0.0,0.0,-4e-05,-2e-05,0.0,-1e-05,1,27.0
700,-1e-05,-2e-05,0.0,0.0,-4e-05,-2e-05,0.0,-1e-05,1,27.0
701,-1e-05,-2e-05,0.0,0.0,-4e-05,-2e-05,0.0,-1e-05,1,27.0
702,-1e-05,-2e-05,0.0,0.0,-4e-05,-2e-05,0.0,-1e-05,1,27.0
703,-1e-05,-2e-05,0.0,0.0,-4e-05,-2e-05,0.0,-1e-05,1,27.0
704,-1e-05,1e-05,-1e-05,-2e-05,-3e-05,-1e-05,-1e-05,0.0,1,27.0
705,-3e-05,-2e-05,-3e-05,-4e-05,0.0,-3e-05,-3e-05,-1e-05,1,27.0
706,-4e-05,-5e-05,-2e-05,0.0,-3e-05,-2e-05,0.0,1e-05,1,27.0
707,-4e-05,-5e-05,-2e-05,0.0,-3e-05,-2e-05,0.0,1e-05,1,27.0
708,-4e-05,-5e-05,-2e-05,0.0,-3e-05,-2e-05,0.0,1e-05,1,27.0
709,1e-05,-1e-05,3e-05,4e-05,1e-05,0.0,-1e-05,0.0,1,27.0
710,1e-05,-1e-05,-6e-05,-6e-05,-3e-05,0.0,-1e-05,-1e-05,1,27.0
711,1e-05,-1e-05,-6e-05,-6e-05,-3e-05,0.0,-1e-05,-1e-05,1,27.0
712,1e-05,-1e-05,-6e-05,-6e-05,-3e-05,0.0,-1e-05,-1e-05,1,27.0
713,1e-05,-1e-05,-6e-05,-6e-05,-3e-05,0.0,-1e-05,-1e-05,1,27.0
714,1e-05,-1e-05,-6e-05,-6e-05,-3e-05,0.0,-1e-05,-1e-05,1,27.0
715,1e-05,-1e-05,-6e-05,-6e-05,-3e-05,0.0,-1e-05,-1e-05,1,27.0
716,1e-05,-1e-05,-6e-05,-6e-05,-3e-05,0.0,-1e-05,-1e-05,1,27.0
717,1e-05,-1e-05,-6e-05,-6e-05,-3e-05,0.0,-1e-05,-1e-05,1,27.0
718,1e-05,-1e-05,-6e-05,-6e-05,-3e-05,0.0,-1e-05,-1e-05,1,27.0
719,1e-05,-1e-05,-6e-05,-6e-05,-3e-05,0.0,-1e-05,-1e-05,1,27.0
720,1e-05,-1e-05,-6e-05,-6e-05,-3e-05,0.0,-1e-05,-1e-05,1,27.0
721,1e-05,-1e-05,-6e-05,-6e-05,-3e-05,0.0,-1e-05,-1e-05,1,27.0
722,1e-05,-1e-05,-6e-05,-6e-05,-3e-05,0.0,-1e-05,-1e-05,1,27.0
723,1e-05,-1e-05,-6e-05,-6e-05,-3e-05,0.0,-1e-05,-1e-05,1,27.0
724,1e-05,-1e-05,-6e-05,-6e-05,-3e-05,0.0,-1e-05,-1e-05,1,27.0
725,1e-05,-1e-05,-6e-05,-6e-05,-3e-05,0.0,-1e-05,-1e-05,1,27.0
726,1e-05,-1e-05,-6e-05,-6e-05,-3e-05,0.0,-1e-05,-1e-05,1,27.0
727,1e-05,-1e-05,-6e-05,-6e-05,-3e-05,0.0,-1e-05,-1e-05,1,27.0
728,1e-05,-1e-05,-6e-05,-6e-05,-3e-05,0.0,-1e-05,-1e-05,1,27.0
729,1e-05,-1e-05,-6e-05,-6e-05,-3e-05,0.0,-1e-05,-1e-05,1,27.0
730,1e-05,-1e-05,-6e-05,-6e-05,-3e-05,0.0,-1e-05,-1e-05,1,27.0
731,1e-05,-1e-05,-6e-05,-6e-05,-3e-05,0.0,-1e-05,-1e-05,1,27.0
732,1e-05,-1e-05,-6e-05,-6e-05,-3e-05,0.0,-1e-05,-1e-05,1,27.0
733,-1e-05,1e-05,3e-05,1e-05,-2e-05,-1e-05,-3e-05,-2e-05,1,27.0
734,-1e-05,1e-05,3e-05,1e-05,-2e-05,-1e-05,-3e-05,-2e-05,1,27.0
735,-1e-05,1e-05,3e-05,1e-05,-2e-05,-1e-05,-3e-05,-2e-05,1,27.0
736,-1e-05,1e-05,3e-05,1e-05,-2e-05,-1e-05,-3e-05,-2e-05,1,27.0
738,-1e-05,1e-05,3e-05,1e-05,-2e-05,-1e-05,-3e-05,-2e-05,1,27.0
739,-1e-05,1e-05,3e-05,1e-05,-2e-05,-1e-05,-3e-05,-2e-05,1,27.0
740,-1e-05,1e-05,3e-05,1e-05,-2e-05,-1e-05,-3e-05,-2e-05,1,27.0
741,0.0,-4e-05,-6e-05,-1e-05,-4e-05,1e-05,-1e-05,1e-05,1,27.0
742,0.0,-4e-05,-6e-05,-1e-05,-4e-05,1e-05,-1e-05,1e-05,1,27.0
743,0.0,-4e-05,-6e-05,-1e-05,-4e-05,1e-05,-1e-05,1e-05,1,27.0
744,0.0,-4e-05,-6e-05,-1e-05,-4e-05,1e-05,-1e-05,1e-05,1,27.0
745,0.0,-4e-05,-6e-05,-1e-05,-4e-05,1e-05,-1e-05,1e-05,1,27.0
746,0.0,-4e-05,-6e-05,-1e-05,-4e-05,1e-05,-1e-05,1e-05,1,27.0
747,0.0,-4e-05,-6e-05,-1e-05,-4e-05,1e-05,-1e-05,1e-05,1,27.0
748,1e-05,0.0,-1e-05,-2e-05,-1e-05,0.0,0.0,-1e-05,1,27.0
749,1e-05,0.0,-1e-05,-2e-05,-1e-05,0.0,0.0,-1e-05,1,27.0
750,0.0,1e-05,3e-05,2e-05,1e-05,-2e-05,0.0,1e-05,1,27.0
751,0.0,1e-05,3e-05,2e-05,1e-05,-2e-05,0.0,1e-05,1,27.0
752,0.0,1e-05,3e-05,2e-05,1e-05,-2e-05,0.0,1e-05,1,27.0
753,0.0,1e-05,3e-05,2e-05,1e-05,-2e-05,0.0,1e-05,1,27.0
754,0.0,1e-05,3e-05,2e-05,1e-05,-2e-05,0.0,1e-05,1,27.0
755,0.0,1e-05,3e-05,2e-05,1e-05,-2e-05,0.0,1e-05,1,27.0
756,0.0,1e-05,3e-05,2e-05,1e-05,-2e-05,0.0,1e-05,1,27.0
757,0.0,1e-05,3e-05,2e-05,1e-05,-2e-05,0.0,1e-05,1,27.0
758,0.0,1e-05,3e-05,2e-05,1e-05,-2e-05,0.0,1e-05,1,27.0
759,0.0,1e-05,3e-05,2e-05,1e-05,-2e-05,0.0,1e-05,1,27.0
760,0.0,1e-05,3e-05,2e-05,1e-05,-2e-05,0.0,1e-05,1,27.0
761,0.0,1e-05,3e-05,2e-05,1e-05,-2e-05,0.0,1e-05,1,27.0
762,0.0,1e-05,3e-05,2e-05,1e-05,-2e-05,0.0,1e-05,1,27.0
763,0.0,1e-05,3e-05,2e-05,1e-05,-2e-05,0.0,1e-05,1,27.0
764,0.0,1e-05,3e-05,2e-05,1e-05,-2e-05,0.0,1e-05,1,27.0
765,0.0,1e-05,3e-05,2e-05,1e-05,-2e-05,0.0,1e-05,1,27.0
766,0.0,1e-05,3e-05,2e-05,1e-05,-2e-05,0.0,1e-05,1,27.0
767,0.0,1e-05,3e-05,2e-05,1e-05,-2e-05,0.0,1e-05,1,27.0
768,0.0,1e-05,3e-05,2e-05,1e-05,-2e-05,0.0,1e-05,1,27.0
769,0.0,1e-05,3e-05,2e-05,1e-05,-2e-05,0.0,1e-05,1,27.0
770,0.0,1e-05,3e-05,2e-05,1e-05,-2e-05,0.0,1e-05,1,27.0
771,0.0,1e-05,3e-05,2e-05,1e-05,-2e-05,0.0,1e-05,1,27.0
772,0.0,1e-05,3e-05,2e-05,1e-05,-2e-05,0.0,1e-05,1,27.0
773,0.0,1e-05,3e-05,2e-05,1e-05,-2e-05,0.0,1e-05,1,27.0
774,0.0,1e-05,3e-05,2e-05,1e-05,-2e-05,0.0,1e-05,1,27.0
775,0.0,1e-05,3e-05,2e-05,1e-05,-2e-05,0.0,1e-05,1,27.0
776,0.0,1e-05,3e-05,2e-05,1e-05,-2e-05,0.0,1e-05,1,27.0
777,0.0,1e-05,3e-05,2e-05,1e-05,-2e-05,0.0,1e-05,1,27.0
778,1e-05,0.0,1e-05,1e-05,0.0,-3e-05,-2e-05,-1e-05,1,27.0
779,-1e-05,1e-05,-1e-05,0.0,2e-05,0.00012,-1e-05,-1e-05,1,27.0
780,0.0,0.0,-2e-05,0.0,2e-05,0.0,0.0,0.0,1,27.0
781,0.0,0.0,-2e-05,0.0,2e-05,0.0,0.0,0.0,1,27.0
782,0.0,0.0,-2e-05,0.0,2e-05,0.0,0.0,0.0,1,27.0
783,0.0,0.0,-2e-05,0.0,2e-05,0.0,0.0,0.0,1,27.0
784,0.0,0.0,-2e-05,0.0,2e-05,0.0,0.0,0.0,1,27.0
785,-2e-05,2e-05,-1e-05,-3e-05,0.0,2e-05,0.0,0.0,1,27.0
786,-2e-05,2e-05,-1e-05,-3e-05,0.0,2e-05,0.0,0.0,1,27.0
788,0.0,-3e-05,-2e-05,0.00011,1e-05,-2e-05,-1e-05,-2e-05,1,27.0
790,0.0,-3e-05,-2e-05,0.00011,1e-05,-2e-05,-1e-05,-2e-05,1,27.0
791,0.0,-3e-05,-2e-05,0.00011,1e-05,-2e-05,-1e-05,-2e-05,1,27.0
792,0.0,-3e-05,-2e-05,0.00011,1e-05,-2e-05,-1e-05,-2e-05,1,27.0
793,0.0,-3e-05,-2e-05,0.00011,1e-05,-2e-05,-1e-05,-2e-05,1,27.0
794,0.0,-3e-05,-2e-05,0.00011,1e-05,-2e-05,-1e-05,-2e-05,1,27.0
795,0.0,-3e-05,-2e-05,0.00011,1e-05,-2e-05,-1e-05,-2e-05,1,27.0
796,0.0,-3e-05,-2e-05,0.00011,1e-05,-2e-05,-1e-05,-2e-05,1,27.0
797,0.0,-3e-05,-2e-05,0.00011,1e-05,-2e-05,-1e-05,-2e-05,1,27.0
798,0.0,-3e-05,-2e-05,0.00011,1e-05,-2e-05,-1e-05,-2e-05,1,27.0
799,0.0,-3e-05,-2e-05,0.00011,1e-05,-2e-05,-1e-05,-2e-05,1,27.0
800,0.0,-3e-05,-2e-05,0.00011,1e-05,-2e-05,-1e-05,-2e-05,1,27.0
801,0.0,-3e-05,-2e-05,0.00011,1e-05,-2e-05,-1e-05,-2e-05,1,27.0
802,0.0,-3e-05,-2e-05,0.00011,1e-05,-2e-05,-1e-05,-2e-05,1,27.0
803,0.0,-3e-05,-2e-05,0.00011,1e-05,-2e-05,-1e-05,-2e-05,1,27.0
804,0.0,-3e-05,-2e-05,0.00011,1e-05,-2e-05,-1e-05,-2e-05,1,27.0
805,0.0,-3e-05,-2e-05,0.00011,1e-05,-2e-05,-1e-05,-2e-05,1,27.0
806,0.0,-3e-05,-2e-05,0.00011,1e-05,-2e-05,-1e-05,-2e-05,1,27.0
807,0.0,-3e-05,-2e-05,0.00011,1e-05,-2e-05,-1e-05,-2e-05,1,27.0
808,0.0,-3e-05,-2e-05,0.00011,1e-05,-2e-05,-1e-05,-2e-05,1,27.0
809,0.0,-3e-05,-2e-05,0.00011,1e-05,-2e-05,-1e-05,-2e-05,1,27.0
810,0.0,-3e-05,-2e-05,0.00011,1e-05,-2e-05,-1e-05,-2e-05,1,27.0
811,0.0,-3e-05,-2e-05,0.00011,1e-05,-2e-05,-1e-05,-2e-05,1,27.0
812,0.0,-3e-05,-2e-05,0.00011,1e-05,-2e-05,-1e-05,-2e-05,1,27.0
813,0.0,-3e-05,-2e-05,0.00011,1e-05,-2e-05,-1e-05,-2e-05,1,27.0
814,0.0,-3e-05,-2e-05,0.00011,1e-05,-2e-05,-1e-05,-2e-05,1,27.0
815,0.0,-3e-05,-2e-05,0.00011,1e-05,-2e-05,-1e-05,-2e-05,1,27.0
816,0.0,-3e-05,-2e-05,0.00011,1e-05,-2e-05,-1e-05,-2e-05,1,27.0
817,0.0,-3e-05,-2e-05,0.00011,1e-05,-2e-05,-1e-05,-2e-05,1,27.0
818,0.0,-3e-05,-2e-05,0.00011,1e-05,-2e-05,-1e-05,-2e-05,1,27.0
819,0.0,-3e-05,-2e-05,0.00011,1e-05,-2e-05,-1e-05,-2e-05,1,27.0
820,0.0,-3e-05,-2e-05,0.00011,1e-05,-2e-05,-1e-05,-2e-05,1,27.0
821,0.0,-3e-05,-2e-05,0.00011,1e-05,-2e-05,-1e-05,-2e-05,1,27.0
822,-1e-05,-2e-05,-3e-05,3e-05,-2e-05,1e-05,-2e-05,-3e-05,1,27.0
823,-1e-05,-2e-05,-3e-05,3e-05,-2e-05,1e-05,-2e-05,-3e-05,1,27.0
824,-1e-05,-2e-05,-3e-05,3e-05,-2e-05,1e-05,-2e-05,-3e-05,1,27.0
825,-1e-05,-2e-05,-3e-05,3e-05,-2e-05,1e-05,-2e-05,-3e-05,1,27.0
826,-1e-05,-2e-05,-3e-05,3e-05,-2e-05,1e-05,-2e-05,-3e-05,1,27.0
827,-1e-05,-2e-05,-3e-05,3e-05,-2e-05,1e-05,-2e-05,-3e-05,1,27.0
828,-1e-05,-2e-05,-3e-05,3e-05,-2e-05,1e-05,-2e-05,-3e-05,1,27.0
829,-1e-05,-2e-05,-3e-05,3e-05,-2e-05,1e-05,-2e-05,-3e-05,1,27.0
830,-1e-05,-2e-05,-3e-05,3e-05,-2e-05,1e-05,-2e-05,-3e-05,1,27.0
831,-1e-05,-2e-05,-3e-05,3e-05,-2e-05,1e-05,-2e-05,-3e-05,1,27.0
832,-2e-05,-2e-05,-2e-05,-4e-05,-1e-05,-4e-05,0.0,0.0,1,27.0
833,-1e-05,0.0,3e-05,-4e-05,-2e-05,-1e-05,-2e-05,0.0,1,27.0
834,-1e-05,0.0,3e-05,-4e-05,-2e-05,-1e-05,-2e-05,0.0,1,27.0
835,-1e-05,0.0,3e-05,-4e-05,-2e-05,-1e-05,-2e-05,0.0,1,27.0
836,-1e-05,-3e-05,-7e-05,0.0,-1e-05,-1e-05,-2e-05,-2e-05,1,27.0
838,-2e-05,0.0,-2e-05,-3e-05,-1e-05,-1e-05,-1e-05,-1e-05,1,27.0
839,-2e-05,0.0,-2e-05,-3e-05,-1e-05,-1e-05,-1e-05,-1e-05,1,27.0
840,-2e-05,0.0,-2e-05,-3e-05,-1e-05,-1e-05,-1e-05,-1e-05,1,27.0
841,-2e-05,0.0,-2e-05,-3e-05,-1e-05,-1e-05,-1e-05,-1e-05,1,27.0
842,-2e-05,0.0,-2e-05,-3e-05,-1e-05,-1e-05,-1e-05,-1e-05,1,27.0
843,-2e-05,0.0,-2e-05,-3e-05,-1e-05,-1e-05,-1e-05,-1e-05,1,27.0
844,-2e-05,0.0,-2e-05,-3e-05,-1e-05,-1e-05,-1e-05,-1e-05,1,27.0
845,-2e-05,0.0,-2e-05,-3e-05,-1e-05,-1e-05,-1e-05,-1e-05,1,27.0
846,-2e-05,0.0,-2e-05,-3e-05,-1e-05,-1e-05,-1e-05,-1e-05,1,27.0
847,-2e-05,0.0,-2e-05,-3e-05,-1e-05,-1e-05,-1e-05,-1e-05,1,27.0
848,-2e-05,0.0,-2e-05,-3e-05,-1e-05,-1e-05,-1e-05,-1e-05,1,27.0
849,-2e-05,0.0,-2e-05,-3e-05,-1e-05,-1e-05,-1e-05,-1e-05,1,27.0
850,-2e-05,0.0,-2e-05,-3e-05,-1e-05,-1e-05,-1e-05,-1e-05,1,27.0
851,-2e-05,0.0,-2e-05,-3e-05,-1e-05,-1e-05,-1e-05,-1e-05,1,27.0
852,-2e-05,0.0,-2e-05,-3e-05,-1e-05,-1e-05,-1e-05,-1e-05,1,27.0
853,-2e-05,0.0,-2e-05,-3e-05,-1e-05,-1e-05,-1e-05,-1e-05,1,27.0
854,-1e-05,-5e-05,-6e-05,-3e-05,-1e-05,0.0,2e-05,1e-05,1,27.0
855,-1e-05,-5e-05,-6e-05,-3e-05,-1e-05,0.0,2e-05,1e-05,1,27.0
856,-1e-05,-5e-05,-6e-05,-3e-05,-1e-05,0.0,2e-05,1e-05,1,27.0
857,-1e-05,-5e-05,-6e-05,-3e-05,-1e-05,0.0,2e-05,1e-05,1,27.0
858,-1e-05,-5e-05,-6e-05,-3e-05,-1e-05,0.0,2e-05,1e-05,1,27.0
859,-2e-05,-3e-05,2e-05,2e-05,1e-05,-1e-05,-1e-05,0.0,1,27.0
860,-2e-05,1e-05,1e-05,-2e-05,-1e-05,0.0,-2e-05,-2e-05,1,27.0
861,-2e-05,1e-05,1e-05,-2e-05,-1e-05,0.0,-2e-05,-2e-05,1,27.0
862,-2e-05,1e-05,1e-05,-2e-05,-1e-05,0.0,-2e-05,-2e-05,1,27.0
863,-2e-05,1e-05,1e-05,-2e-05,-1e-05,0.0,-2e-05,-2e-05,1,27.0
864,-2e-05,1e-05,1e-05,-2e-05,-1e-05,0.0,-2e-05,-2e-05,1,27.0
865,-2e-05,1e-05,1e-05,-2e-05,-1e-05,0.0,-2e-05,-2e-05,1,27.0
866,-2e-05,1e-05,1e-05,-2e-05,-1e-05,0.0,-2e-05,-2e-05,1,27.0
867,-2e-05,1e-05,1e-05,-2e-05,-1e-05,0.0,-2e-05,-2e-05,1,27.0
868,-1e-05,0.0,2e-05,2e-05,1e-05,-2e-05,-1e-05,-1e-05,1,27.0
869,-1e-05,0.0,2e-05,2e-05,1e-05,-2e-05,-1e-05,-1e-05,1,27.0
870,1e-05,-1e-05,-4e-05,-1e-05,0.0,0.0,0.0,1e-05,1,27.0
871,1e-05,-1e-05,-4e-05,-1e-05,0.0,0.0,0.0,1e-05,1,27.0
872,1e-05,-1e-05,-4e-05,-1e-05,0.0,0.0,0.0,1e-05,1,27.0
873,1e-05,-1e-05,-4e-05,-1e-05,0.0,0.0,0.0,1e-05,1,27.0
874,1e-05,-1e-05,-4e-05,-1e-05,0.0,0.0,0.0,1e-05,1,27.0
875,1e-05,-1e-05,-4e-05,-1e-05,0.0,0.0,0.0,1e-05,1,27.0
876,1e-05,-1e-05,-4e-05,-1e-05,0.0,0.0,0.0,1e-05,1,27.0
877,1e-05,-1e-05,-4e-05,-1e-05,0.0,0.0,0.0,1e-05,1,27.0
878,1e-05,-1e-05,-4e-05,-1e-05,0.0,0.0,0.0,1e-05,1,27.0
879,1e-05,-1e-05,-4e-05,-1e-05,0.0,0.0,0.0,1e-05,1,27.0
880,1e-05,-1e-05,-4e-05,-1e-05,0.0,0.0,0.0,1e-05,1,27.0
881,1e-05,-1e-05,-4e-05,-1e-05,0.0,0.0,0.0,1e-05,1,27.0
882,1e-05,-1e-05,-4e-05,-1e-05,0.0,0.0,0.0,1e-05,1,27.0
883,1e-05,-1e-05,-4e-05,-1e-05,0.0,0.0,0.0,1e-05,1,27.0
884,1e-05,-1e-05,-4e-05,-1e-05,0.0,0.0,0.0,1e-05,1,27.0
885,1e-05,-1e-05,-4e-05,-1e-05,0.0,0.0,0.0,1e-05,1,27.0
886,1e-05,-1e-05,-4e-05,-1e-05,0.0,0.0,0.0,1e-05,1,27.0
888,1e-05,-1e-05,-4e-05,-1e-05,0.0,0.0,0.0,1e-05,1,27.0
889,1e-05,-1e-05,-4e-05,-1e-05,0.0,0.0,0.0,1e-05,1,27.0
890,1e-05,-1e-05,-4e-05,-1e-05,0.0,0.0,0.0,1e-05,1,27.0
891,1e-05,-1e-05,-4e-05,-1e-05,0.0,0.0,0.0,1e-05,1,27.0
892,1e-05,-1e-05,-4e-05,-1e-05,0.0,0.0,0.0,1e-05,1,27.0
893,1e-05,-1e-05,-4e-05,-1e-05,0.0,0.0,0.0,1e-05,1,27.0
894,1e-05,-1e-05,-4e-05,-1e-05,0.0,0.0,0.0,1e-05,1,27.0
895,1e-05,-1e-05,-4e-05,-1e-05,0.0,0.0,0.0,1e-05,1,27.0
896,1e-05,-1e-05,-4e-05,-1e-05,0.0,0.0,0.0,1e-05,1,27.0
897,1e-05,-1e-05,-4e-05,-1e-05,0.0,0.0,0.0,1e-05,1,27.0
898,1e-05,1e-05,-1e-05,-2e-05,-1e-05,-2e-05,-1e-05,-2e-05,1,27.0
899,1e-05,1e-05,-1e-05,-2e-05,-1e-05,-2e-05,-1e-05,-2e-05,1,27.0
900,-2e-05,0.0,0.0,3e-05,-1e-05,-4e-05,1e-05,-1e-05,1,27.0
901,-2e-05,0.0,0.0,3e-05,-1e-05,-4e-05,1e-05,-1e-05,1,27.0
902,-2e-05,0.0,0.0,3e-05,-1e-05,-4e-05,1e-05,-1e-05,1,27.0
903,-2e-05,0.0,0.0,3e-05,-1e-05,-4e-05,1e-05,-1e-05,1,27.0
904,-2e-05,0.0,0.0,3e-05,-1e-05,-4e-05,1e-05,-1e-05,1,27.0
905,-2e-05,-1e-05,-3e-05,-1e-05,-3e-05,-2e-05,-3e-05,-1e-05,1,27.0
906,-2e-05,-1e-05,-3e-05,-1e-05,-3e-05,-2e-05,-3e-05,-1e-05,1,27.0
907,-3e-05,-2e-05,-1e-05,0.0,-2e-05,2e-05,-1e-05,0.0,1,27.0
908,-3e-05,-2e-05,-1e-05,0.0,-2e-05,2e-05,-1e-05,0.0,1,27.0
909,-3e-05,-2e-05,-1e-05,0.0,-2e-05,2e-05,-1e-05,0.0,1,27.0
910,-3e-05,-2e-05,-1e-05,0.0,-2e-05,2e-05,-1e-05,0.0,1,27.0
911,-3e-05,-2e-05,-1e-05,0.0,-2e-05,2e-05,-1e-05,0.0,1,27.0
912,-3e-05,-2e-05,-1e-05,0.0,-2e-05,2e-05,-1e-05,0.0,1,27.0
913,-3e-05,-2e-05,-1e-05,0.0,-2e-05,2e-05,-1e-05,0.0,1,27.0
914,-3e-05,-2e-05,-1e-05,0.0,-2e-05,2e-05,-1e-05,0.0,1,27.0
915,-3e-05,-2e-05,-1e-05,0.0,-2e-05,2e-05,-1e-05,0.0,1,27.0
916,-3e-05,-2e-05,-1e-05,0.0,-2e-05,2e-05,-1e-05,0.0,1,27.0
917,-3e-05,-2e-05,-1e-05,0.0,-2e-05,2e-05,-1e-05,0.0,1,27.0
918,-3e-05,-2e-05,-1e-05,0.0,-2e-05,2e-05,-1e-05,0.0,1,27.0
919,-3e-05,-2e-05,-1e-05,0.0,-2e-05,2e-05,-1e-05,0.0,1,27.0
920,-3e-05,-2e-05,-1e-05,0.0,-2e-05,2e-05,-1e-05,0.0,1,27.0
921,-3e-05,-2e-05,-1e-05,0.0,-2e-05,2e-05,-1e-05,0.0,1,27.0
922,-3e-05,-2e-05,-1e-05,0.0,-2e-05,2e-05,-1e-05,0.0,1,27.0
923,-3e-05,-2e-05,-1e-05,0.0,-2e-05,2e-05,-1e-05,0.0,1,27.0
924,-3e-05,-2e-05,-1e-05,0.0,-2e-05,2e-05,-1e-05,0.0,1,27.0
925,-3e-05,-2e-05,-1e-05,0.0,-2e-05,2e-05,-1e-05,0.0,1,27.0
926,-3e-05,-2e-05,-1e-05,0.0,-2e-05,2e-05,-1e-05,0.0,1,27.0
927,-3e-05,-2e-05,-1e-05,0.0,-2e-05,2e-05,-1e-05,0.0,1,27.0
928,-3e-05,-2e-05,-1e-05,0.0,-2e-05,2e-05,-1e-05,0.0,1,27.0
929,-3e-05,-2e-05,-1e-05,0.0,-2e-05,2e-05,-1e-05,0.0,1,27.0
930,-3e-05,-2e-05,-1e-05,0.0,-2e-05,2e-05,-1e-05,0.0,1,27.0
931,-3e-05,-2e-05,-1e-05,0.0,-2e-05,2e-05,-1e-05,0.0,1,27.0
932,-3e-05,-2e-05,-1e-05,0.0,-2e-05,2e-05,-1e-05,0.0,1,27.0
933,-3e-05,-2e-05,-1e-05,0.0,-2e-05,2e-05,-1e-05,0.0,1,27.0
934,-3e-05,-2e-05,-1e-05,0.0,-2e-05,2e-05,-1e-05,0.0,1,27.0
935,-1e-05,-1e-05,-4e-05,-5e-05,0.0,6e-05,0.0,-1e-05,1,27.0
936,-1e-05,-1e-05,-4e-05,-5e-05,0.0,6e-05,0.0,-1e-05,1,27.0
938,-1e-05,-1e-05,-4e-05,-5e-05,0.0,6e-05,0.0,-1e-05,1,27.0
939,-1e-05,-1e-05,-4e-05,-5e-05,0.0,6e-05,0.0,-1e-05,1,27.0
940,-1e-05,-1e-05,-4e-05,-5e-05,0.0,6e-05,0.0,-1e-05,1,27.0
941,-1e-05,-1e-05,-4e-05,-5e-05,0.0,6e-05,0.0,-1e-05,1,27.0
942,-1e-05,-1e-05,-4e-05,-5e-05,0.0,6e-05,0.0,-1e-05,1,27.0
943,-1e-05,-1e-05,-4e-05,-5e-05,0.0,6e-05,0.0,-1e-05,1,27.0
944,-2e-05,-3e-05,-2e-05,-3e-05,2e-05,0.0,1e-05,-2e-05,1,27.0
945,0.0,2e-05,-3e-05,-3e-05,-2e-05,-8e-05,0.0,-2e-05,1,27.0
947,0.0,2e-05,-3e-05,-3e-05,-2e-05,-8e-05,0.0,-2e-05,1,27.0
948,0.0,2e-05,-3e-05,-3e-05,-2e-05,-8e-05,0.0,-2e-05,1,27.0
949,-1e-05,-2e-05,-3e-05,-6e-05,-1e-05,-1e-05,-2e-05,-1e-05,1,27.0
950,-1e-05,-2e-05,-3e-05,-6e-05,-1e-05,-1e-05,-2e-05,-1e-05,1,27.0
951,-1e-05,-2e-05,-3e-05,-6e-05,-1e-05,-1e-05,-2e-05,-1e-05,1,27.0
952,-1e-05,-2e-05,-3e-05,-6e-05,-1e-05,-1e-05,-2e-05,-1e-05,1,27.0
953,-1e-05,-2e-05,-3e-05,-6e-05,-1e-05,-1e-05,-2e-05,-1e-05,1,27.0
954,-1e-05,-2e-05,-3e-05,-6e-05,-1e-05,-1e-05,-2e-05,-1e-05,1,27.0
955,-1e-05,-2e-05,-3e-05,-6e-05,-1e-05,-1e-05,-2e-05,-1e-05,1,27.0
956,-1e-05,-2e-05,-3e-05,-6e-05,-1e-05,-1e-05,-2e-05,-1e-05,1,27.0
957,-1e-05,-2e-05,-3e-05,-6e-05,-1e-05,-1e-05,-2e-05,-1e-05,1,27.0
958,-1e-05,-2e-05,-3e-05,-6e-05,-1e-05,-1e-05,-2e-05,-1e-05,1,27.0
959,-1e-05,-2e-05,-3e-05,-6e-05,-1e-05,-1e-05,-2e-05,-1e-05,1,27.0
960,-1e-05,-2e-05,-3e-05,-6e-05,-1e-05,-1e-05,-2e-05,-1e-05,1,27.0
961,-1e-05,-2e-05,-3e-05,-6e-05,-1e-05,-1e-05,-2e-05,-1e-05,1,27.0
962,-1e-05,-2e-05,-3e-05,-6e-05,-1e-05,-1e-05,-2e-05,-1e-05,1,27.0
963,-1e-05,-2e-05,-3e-05,-6e-05,-1e-05,-1e-05,-2e-05,-1e-05,1,27.0
964,-1e-05,-2e-05,-3e-05,-6e-05,-1e-05,-1e-05,-2e-05,-1e-05,1,27.0
965,-1e-05,-2e-05,-3e-05,-6e-05,-1e-05,-1e-05,-2e-05,-1e-05,1,27.0
966,-1e-05,-2e-05,-3e-05,-6e-05,-1e-05,-1e-05,-2e-05,-1e-05,1,27.0
967,-1e-05,-2e-05,-3e-05,-6e-05,-1e-05,-1e-05,-2e-05,-1e-05,1,27.0
968,-1e-05,-2e-05,-3e-05,-6e-05,-1e-05,-1e-05,-2e-05,-1e-05,1,27.0
969,-1e-05,-2e-05,-3e-05,-6e-05,-1e-05,-1e-05,-2e-05,-1e-05,1,27.0
970,-1e-05,-2e-05,-3e-05,-6e-05,-1e-05,-1e-05,-2e-05,-1e-05,1,27.0
971,-1e-05,-2e-05,-3e-05,-6e-05,-1e-05,-1e-05,-2e-05,-1e-05,1,27.0
972,-1e-05,-2e-05,-3e-05,-6e-05,-1e-05,-1e-05,-2e-05,-1e-05,1,27.0
973,-1e-05,-2e-05,-3e-05,-6e-05,-1e-05,-1e-05,-2e-05,-1e-05,1,27.0
974,-1e-05,-2e-05,-3e-05,-6e-05,-1e-05,-1e-05,-2e-05,-1e-05,1,27.0
975,-1e-05,-2e-05,-3e-05,-6e-05,-1e-05,-1e-05,-2e-05,-1e-05,1,27.0
976,-1e-05,-2e-05,-3e-05,-6e-05,-1e-05,-1e-05,-2e-05,-1e-05,1,27.0
977,-1e-05,-2e-05,-3e-05,-6e-05,-1e-05,-1e-05,-2e-05,-1e-05,1,27.0
978,-1e-05,-2e-05,-3e-05,-6e-05,-1e-05,-1e-05,-2e-05,-1e-05,1,27.0
979,-1e-05,-2e-05,-3e-05,-6e-05,-1e-05,-1e-05,-2e-05,-1e-05,1,27.0
980,-2e-05,-1e-05,-1e-05,0.0,-2e-05,-3e-05,-3e-05,0.0,1,27.0
981,-1e-05,-1e-05,6e-05,3e-05,0.0,0.0,-2e-05,-1e-05,1,27.0
982,0.0,0.0,-5e-05,4e-05,-1e-05,-3e-05,-2e-05,-2e-05,1,27.0
983,0.0,0.0,-5e-05,4e-05,-1e-05,-3e-05,-2e-05,-2e-05,1,27.0
984,0.0,0.0,-5e-05,4e-05,-1e-05,-3e-05,-2e-05,-2e-05,1,27.0
985,0.0,0.0,-5e-05,4e-05,-1e-05,-3e-05,-2e-05,-2e-05,1,27.0
986,0.0,0.0,-5e-05,4e-05,-1e-05,-3e-05,-2e-05,-2e-05,1,27.0
989,0.0,-1e-05,3e-05,-7e-05,-2e-05,-1e-05,0.0,0.0,1,27.0
990,0.0,-1e-05,3e-05,-7e-05,-2e-05,-1e-05,0.0,0.0,1,27.0
991,0.0,-1e-05,3e-05,-7e-05,-2e-05,-1e-05,0.0,0.0,1,27.0
992,0.0,-1e-05,3e-05,-7e-05,-2e-05,-1e-05,0.0,0.0,1,27.0
993,0.0,-1e-05,3e-05,-7e-05,-2e-05,-1e-05,0.0,0.0,1,27.0
994,0.0,-1e-05,3e-05,-7e-05,-2e-05,-1e-05,0.0,0.0,1,27.0
995,0.0,-1e-05,3e-05,-7e-05,-2e-05,-1e-05,0.0,0.0,1,27.0
996,0.0,-1e-05,3e-05,-7e-05,-2e-05,-1e-05,0.0,0.0,1,27.0
997,0.0,-1e-05,3e-05,-7e-05,-2e-05,-1e-05,0.0,0.0,1,27.0
998,0.0,-1e-05,3e-05,-7e-05,-2e-05,-1e-05,0.0,0.0,1,27.0
999,0.0,-1e-05,3e-05,-7e-05,-2e-05,-1e-05,0.0,0.0,1,27.0
1000,0.0,-1e-05,3e-05,-7e-05,-2e-05,-1e-05,0.0,0.0,1,27.0
1001,0.0,-1e-05,3e-05,-7e-05,-2e-05,-1e-05,0.0,0.0,1,27.0
1002,0.0,-1e-05,3e-05,-7e-05,-2e-05,-1e-05,0.0,0.0,1,27.0
1003,0.0,-1e-05,3e-05,-7e-05,-2e-05,-1e-05,0.0,0.0,1,27.0
1004,0.0,-1e-05,3e-05,-7e-05,-2e-05,-1e-05,0.0,0.0,1,27.0
1005,0.0,-1e-05,3e-05,-7e-05,-2e-05,-1e-05,0.0,0.0,1,27.0
1006,0.0,-1e-05,3e-05,-7e-05,-2e-05,-1e-05,0.0,0.0,1,27.0
1007,0.0,-1e-05,3e-05,-7e-05,-2e-05,-1e-05,0.0,0.0,1,27.0
1008,0.0,-1e-05,3e-05,-7e-05,-2e-05,-1e-05,0.0,0.0,1,27.0
1009,0.0,-1e-05,3e-05,-7e-05,-2e-05,-1e-05,0.0,0.0,1,27.0
1010,0.0,-1e-05,3e-05,-7e-05,-2e-05,-1e-05,0.0,0.0,1,27.0
1011,0.0,-1e-05,3e-05,-7e-05,-2e-05,-1e-05,0.0,0.0,1,27.0
1013,0.0,-1e-05,3e-05,-7e-05,-2e-05,-1e-05,0.0,0.0,1,27.0
1014,0.0,-1e-05,3e-05,-7e-05,-2e-05,-1e-05,0.0,0.0,1,27.0
1015,0.0,-1e-05,3e-05,-7e-05,-2e-05,-1e-05,0.0,0.0,1,27.0
1016,0.0,-1e-05,3e-05,-7e-05,-2e-05,-1e-05,0.0,0.0,1,27.0
1017,0.0,-1e-05,3e-05,-7e-05,-2e-05,-1e-05,0.0,0.0,1,27.0
1018,0.0,-1e-05,3e-05,-7e-05,-2e-05,-1e-05,0.0,0.0,1,27.0
1019,0.0,-1e-05,3e-05,-7e-05,-2e-05,-1e-05,0.0,0.0,1,27.0
1020,0.0,-1e-05,3e-05,-7e-05,-2e-05,-1e-05,0.0,0.0,1,27.0
1021,0.0,-1e-05,3e-05,-7e-05,-2e-05,-1e-05,0.0,0.0,1,27.0
1022,-3e-05,-5e-05,-7e-05,3e-05,-2e-05,2e-05,-1e-05,-1e-05,1,27.0
1024,-3e-05,-5e-05,-7e-05,3e-05,-2e-05,2e-05,-1e-05,-1e-05,1,27.0
1025,-3e-05,-5e-05,-7e-05,3e-05,-2e-05,2e-05,-1e-05,-1e-05,1,27.0
1026,-3e-05,-5e-05,-7e-05,3e-05,-2e-05,2e-05,-1e-05,-1e-05,1,27.0
1027,-3e-05,-5e-05,-7e-05,3e-05,-2e-05,2e-05,-1e-05,-1e-05,1,27.0
1028,-3e-05,-5e-05,-7e-05,3e-05,-2e-05,2e-05,-1e-05,-1e-05,1,27.0
1029,-3e-05,-5e-05,-7e-05,3e-05,-2e-05,2e-05,-1e-05,-1e-05,1,27.0
1030,-3e-05,-5e-05,-7e-05,3e-05,-2e-05,2e-05,-1e-05,-1e-05,1,27.0
1031,-1e-05,3e-05,6e-05,-2e-05,-1e-05,-1e-05,-2e-05,-2e-05,1,27.0
1032,-1e-05,3e-05,6e-05,-2e-05,-1e-05,-1e-05,-2e-05,-2e-05,1,27.0
1033,-1e-05,3e-05,6e-05,-2e-05,-1e-05,-1e-05,-2e-05,-2e-05,1,27.0
1034,-1e-05,3e-05,6e-05,-2e-05,-1e-05,-1e-05,-2e-05,-2e-05,1,27.0
1035,-1e-05,3e-05,6e-05,-2e-05,-1e-05,-1e-05,-2e-05,-2e-05,1,27.0
1036,-1e-05,3e-05,6e-05,-2e-05,-1e-05,-1e-05,-2e-05,-2e-05,1,27.0
1038,-1e-05,3e-05,6e-05,-2e-05,-1e-05,-1e-05,-2e-05,-2e-05,1,27.0
1039,-1e-05,3e-05,6e-05,-2e-05,-1e-05,-1e-05,-2e-05,-2e-05,1,27.0
1040,-1e-05,3e-05,6e-05,-2e-05,-1e-05,-1e-05,-2e-05,-2e-05,1,27.0
1041,-1e-05,3e-05,6e-05,-2e-05,-1e-05,-1e-05,-2e-05,-2e-05,1,27.0
1042,-1e-05,3e-05,6e-05,-2e-05,-1e-05,-1e-05,-2e-05,-2e-05,1,27.0
1043,-1e-05,3e-05,6e-05,-2e-05,-1e-05,-1e-05,-2e-05,-2e-05,1,27.0
1044,-1e-05,3e-05,6e-05,-2e-05,-1e-05,-1e-05,-2e-05,-2e-05,1,27.0
1045,-1e-05,3e-05,6e-05,-2e-05,-1e-05,-1e-05,-2e-05,-2e-05,1,27.0
1046,-1e-05,3e-05,6e-05,-2e-05,-1e-05,-1e-05,-2e-05,-2e-05,1,27.0
1047,-1e-05,3e-05,6e-05,-2e-05,-1e-05,-1e-05,-2e-05,-2e-05,1,27.0
1048,-1e-05,3e-05,6e-05,-2e-05,-1e-05,-1e-05,-2e-05,-2e-05,1,27.0
1049,-1e-05,-3e-05,-3e-05,8e-05,1e-05,-3e-05,-1e-05,-2e-05,1,27.0
1050,-1e-05,-3e-05,-3e-05,8e-05,1e-05,-3e-05,-1e-05,-2e-05,1,27.0
1051,-1e-05,-3e-05,-3e-05,8e-05,1e-05,-3e-05,-1e-05,-2e-05,1,27.0
1052,-1e-05,-3e-05,-3e-05,8e-05,1e-05,-3e-05,-1e-05,-2e-05,1,27.0
1053,-1e-05,-3e-05,-3e-05,8e-05,1e-05,-3e-05,-1e-05,-2e-05,1,27.0
1054,-1e-05,-3e-05,-3e-05,8e-05,1e-05,-3e-05,-1e-05,-2e-05,1,27.0
1055,-1e-05,-4e-05,-1e-05,-5e-05,-1e-05,-2e-05,1e-05,0.0,1,27.0
1056,-1e-05,-4e-05,-1e-05,-5e-05,-1e-05,-2e-05,1e-05,0.0,1,27.0
1057,-1e-05,-4e-05,-1e-05,-5e-05,-1e-05,-2e-05,1e-05,0.0,1,27.0
1058,-1e-05,-4e-05,-1e-05,-5e-05,-1e-05,-2e-05,1e-05,0.0,1,27.0
1059,-1e-05,-4e-05,-1e-05,-5e-05,-1e-05,-2e-05,1e-05,0.0,1,27.0
1060,-1e-05,-4e-05,-1e-05,-5e-05,-1e-05,-2e-05,1e-05,0.0,1,27.0
1061,-1e-05,-4e-05,-1e-05,-5e-05,-1e-05,-2e-05,1e-05,0.0,1,27.0
1062,0.0,-1e-05,0.0,-5e-05,1e-05,0.0,0.0,2e-05,1,27.0
1063,0.0,-1e-05,0.0,-5e-05,1e-05,0.0,0.0,2e-05,1,27.0
1064,0.0,-1e-05,0.0,-5e-05,1e-05,0.0,0.0,2e-05,1,27.0
1065,0.0,-1e-05,0.0,-5e-05,1e-05,0.0,0.0,2e-05,1,27.0
1066,0.0,-1e-05,0.0,-5e-05,1e-05,0.0,0.0,2e-05,1,27.0
1067,0.0,-1e-05,0.0,-5e-05,1e-05,0.0,0.0,2e-05,1,27.0
1068,0.0,-1e-05,0.0,-5e-05,1e-05,0.0,0.0,2e-05,1,27.0
1069,0.0,-1e-05,1e-05,0.0,-1e-05,-1e-05,-2e-05,-3e-05,1,27.0
1070,0.0,-1e-05,1e-05,0.0,-1e-05,-1e-05,-2e-05,-3e-05,1,27.0
1071,0.0,-1e-05,1e-05,0.0,-1e-05,-1e-05,-2e-05,-3e-05,1,27.0
1072,0.0,-1e-05,1e-05,0.0,-1e-05,-1e-05,-2e-05,-3e-05,1,27.0
1073,0.0,-1e-05,1e-05,0.0,-1e-05,-1e-05,-2e-05,-3e-05,1,27.0
1074,0.0,-1e-05,1e-05,0.0,-1e-05,-1e-05,-2e-05,-3e-05,1,27.0
1075,0.0,-1e-05,1e-05,0.0,-1e-05,-1e-05,-2e-05,-3e-05,1,27.0
1076,0.0,-1e-05,1e-05,0.0,-1e-05,-1e-05,-2e-05,-3e-05,1,27.0
1077,0.0,-1e-05,1e-05,0.0,-1e-05,-1e-05,-2e-05,-3e-05,1,27.0
1078,0.0,-1e-05,1e-05,0.0,-1e-05,-1e-05,-2e-05,-3e-05,1,27.0
1079,0.0,-1e-05,1e-05,0.0,-1e-05,-1e-05,-2e-05,-3e-05,1,27.0
1080,0.0,-1e-05,1e-05,0.0,-1e-05,-1e-05,-2e-05,-3e-05,1,27.0
1081,0.0,-1e-05,1e-05,0.0,-1e-05,-1e-05,-2e-05,-3e-05,1,27.0
1082,0.0,-1e-05,1e-05,0.0,-1e-05,-1e-05,-2e-05,-3e-05,1,27.0
1083,0.0,-1e-05,1e-05,0.0,-1e-05,-1e-05,-2e-05,-3e-05,1,27.0
1084,0.0,-1e-05,1e-05,0.0,-1e-05,-1e-05,-2e-05,-3e-05,1,27.0
1085,-2e-05,-1e-05,-4e-05,-2e-05,-3e-05,-2e-05,0.0,-1e-05,1,27.0
1086,-2e-05,-1e-05,-4e-05,-2e-05,-3e-05,-2e-05,0.0,-1e-05,1,27.0
1088,-2e-05,-1e-05,-4e-05,-2e-05,-3e-05,-2e-05,0.0,-1e-05,1,27.0
1089,-2e-05,-1e-05,-4e-05,-2e-05,-3e-05,-2e-05,0.0,-1e-05,1,27.0
1090,-2e-05,-1e-05,-4e-05,-2e-05,-3e-05,-2e-05,0.0,-1e-05,1,27.0
1091,-2e-05,-1e-05,-4e-05,-2e-05,-3e-05,-2e-05,0.0,-1e-05,1,27.0
1092,-2e-05,-1e-05,-4e-05,-2e-05,-3e-05,-2e-05,0.0,-1e-05,1,27.0
1093,-2e-05,-1e-05,-4e-05,-2e-05,-3e-05,-2e-05,0.0,-1e-05,1,27.0
1094,-2e-05,-1e-05,-4e-05,-2e-05,-3e-05,-2e-05,0.0,-1e-05,1,27.0
1095,-2e-05,-1e-05,-4e-05,-2e-05,-3e-05,-2e-05,0.0,-1e-05,1,27.0
1096,-2e-05,-1e-05,-4e-05,-2e-05,-3e-05,-2e-05,0.0,-1e-05,1,27.0
1097,-2e-05,-1e-05,-4e-05,-2e-05,-3e-05,-2e-05,0.0,-1e-05,1,27.0
1098,-2e-05,-1e-05,-4e-05,-2e-05,-3e-05,-2e-05,0.0,-1e-05,1,27.0
1099,-2e-05,-1e-05,-4e-05,-2e-05,-3e-05,-2e-05,0.0,-1e-05,1,27.0
1100,-2e-05,-1e-05,-4e-05,-2e-05,-3e-05,-2e-05,0.0,-1e-05,1,27.0
1101,-2e-05,2e-05,7e-05,-6e-05,1e-05,-2e-05,-1e-05,-1e-05,1,27.0
1102,-2e-05,2e-05,7e-05,-6e-05,1e-05,-2e-05,-1e-05,-1e-05,1,27.0
1103,-2e-05,2e-05,7e-05,-6e-05,1e-05,-2e-05,-1e-05,-1e-05,1,27.0
1104,-2e-05,2e-05,7e-05,-6e-05,1e-05,-2e-05,-1e-05,-1e-05,1,27.0
1105,-2e-05,2e-05,7e-05,-6e-05,1e-05,-2e-05,-1e-05,-1e-05,1,27.0
1106,-2e-05,2e-05,7e-05,-6e-05,1e-05,-2e-05,-1e-05,-1e-05,1,27.0
1107,-2e-05,2e-05,7e-05,-6e-05,1e-05,-2e-05,-1e-05,-1e-05,1,27.0
1108,0.0,-2e-05,-0.00012,-3e-05,-3e-05,-2e-05,-1e-05,0.0,1,27.0
1109,-1e-05,-4e-05,1e-05,-1e-05,1e-05,0.0,0.0,0.0,1,27.0
1110,-1e-05,-4e-05,1e-05,-1e-05,1e-05,0.0,0.0,0.0,1,27.0
1111,0.0,1e-05,2e-05,3e-05,0.0,-7e-05,-1e-05,-3e-05,1,27.0
1112,0.0,1e-05,2e-05,3e-05,0.0,-7e-05,-1e-05,-3e-05,1,27.0
1113,0.0,1e-05,2e-05,3e-05,0.0,-7e-05,-1e-05,-3e-05,1,27.0
1114,0.0,1e-05,2e-05,3e-05,0.0,-7e-05,-1e-05,-3e-05,1,27.0
1115,0.0,1e-05,2e-05,3e-05,0.0,-7e-05,-1e-05,-3e-05,1,27.0
1116,0.0,1e-05,2e-05,3e-05,0.0,-7e-05,-1e-05,-3e-05,1,27.0
1117,0.0,1e-05,2e-05,3e-05,0.0,-7e-05,-1e-05,-3e-05,1,27.0
1118,0.0,1e-05,2e-05,3e-05,0.0,-7e-05,-1e-05,-3e-05,1,27.0
1119,0.0,1e-05,2e-05,3e-05,0.0,-7e-05,-1e-05,-3e-05,1,27.0
1120,0.0,1e-05,2e-05,3e-05,0.0,-7e-05,-1e-05,-3e-05,1,27.0
1121,0.0,1e-05,2e-05,3e-05,0.0,-7e-05,-1e-05,-3e-05,1,27.0
1122,0.0,0.0,-1e-05,-1e-05,1e-05,-2e-05,1e-05,-3e-05,1,27.0
1123,-1e-05,-1e-05,-1e-05,-2e-05,0.0,4e-05,0.0,-1e-05,1,27.0
1124,-1e-05,-1e-05,-1e-05,-2e-05,0.0,4e-05,0.0,-1e-05,1,27.0
1125,-1e-05,-1e-05,-1e-05,-2e-05,0.0,4e-05,0.0,-1e-05,1,27.0
1126,-1e-05,-1e-05,-1e-05,-2e-05,0.0,4e-05,0.0,-1e-05,1,27.0
1127,-1e-05,-1e-05,-1e-05,-2e-05,0.0,4e-05,0.0,-1e-05,1,27.0
1128,-1e-05,-1e-05,-1e-05,-2e-05,0.0,4e-05,0.0,-1e-05,1,27.0
1129,-1e-05,-1e-05,-1e-05,-2e-05,0.0,4e-05,0.0,-1e-05,1,27.0
1130,-1e-05,-1e-05,-1e-05,-2e-05,0.0,4e-05,0.0,-1e-05,1,27.0
1131,-1e-05,-1e-05,-1e-05,-2e-05,0.0,4e-05,0.0,-1e-05,1,27.0
1132,-1e-05,-1e-05,-1e-05,-2e-05,0.0,4e-05,0.0,-1e-05,1,27.0
1133,-1e-05,-1e-05,-1e-05,-2e-05,0.0,4e-05,0.0,-1e-05,1,27.0
1134,-1e-05,-1e-05,-1e-05,-2e-05,0.0,4e-05,0.0,-1e-05,1,27.0
1135,-1e-05,-1e-05,-1e-05,-2e-05,0.0,4e-05,0.0,-1e-05,1,27.0
1136,0.0,-4e-05,0.0,1e-05,1e-05,0.00012,-1e-05,-1e-05,1,27.0
1138,0.0,-4e-05,0.0,1e-05,1e-05,0.00012,-1e-05,-1e-05,1,27.0
1139,0.0,-4e-05,0.0,1e-05,1e-05,0.00012,-1e-05,-1e-05,1,27.0
1140,0.0,-4e-05,0.0,1e-05,1e-05,0.00012,-1e-05,-1e-05,1,27.0
1141,0.0,-4e-05,0.0,1e-05,1e-05,0.00012,-1e-05,-1e-05,1,27.0
1143,0.0,-4e-05,0.0,1e-05,1e-05,0.00012,-1e-05,-1e-05,1,27.0
1144,0.0,-4e-05,0.0,1e-05,1e-05,0.00012,-1e-05,-1e-05,1,27.0
1145,0.0,0.0,-2e-05,-5e-05,-3e-05,-1e-05,0.0,-3e-05,1,27.0
1146,0.0,0.0,-2e-05,-5e-05,-3e-05,-1e-05,0.0,-3e-05,1,27.0
1147,-2e-05,-3e-05,-8e-05,-5e-05,-1e-05,-2e-05,0.0,1e-05,1,27.0
1148,-2e-05,-3e-05,-8e-05,-5e-05,-1e-05,-2e-05,0.0,1e-05,1,27.0
1149,-2e-05,-3e-05,-8e-05,-5e-05,-1e-05,-2e-05,0.0,1e-05,1,27.0
1150,-2e-05,-3e-05,-8e-05,-5e-05,-1e-05,-2e-05,0.0,1e-05,1,27.0
1151,-2e-05,-3e-05,-8e-05,-5e-05,-1e-05,-2e-05,0.0,1e-05,1,27.0
1152,-2e-05,-3e-05,-8e-05,-5e-05,-1e-05,-2e-05,0.0,1e-05,1,27.0
1153,-2e-05,-3e-05,-8e-05,-5e-05,-1e-05,-2e-05,0.0,1e-05,1,27.0
1154,-2e-05,-3e-05,-8e-05,-5e-05,-1e-05,-2e-05,0.0,1e-05,1,27.0
1155,-2e-05,-3e-05,-8e-05,-5e-05,-1e-05,-2e-05,0.0,1e-05,1,27.0
1156,-2e-05,-3e-05,-8e-05,-5e-05,-1e-05,-2e-05,0.0,1e-05,1,27.0
1157,-2e-05,-3e-05,-8e-05,-5e-05,-1e-05,-2e-05,0.0,1e-05,1,27.0
1158,-2e-05,-3e-05,-8e-05,-5e-05,-1e-05,-2e-05,0.0,1e-05,1,27.0
1159,-2e-05,-3e-05,-8e-05,-5e-05,-1e-05,-2e-05,0.0,1e-05,1,27.0
1160,-2e-05,-3e-05,-8e-05,-5e-05,-1e-05,-2e-05,0.0,1e-05,1,27.0
1161,-2e-05,-3e-05,-8e-05,-5e-05,-1e-05,-2e-05,0.0,1e-05,1,27.0
1162,-2e-05,-3e-05,-8e-05,-5e-05,-1e-05,-2e-05,0.0,1e-05,1,27.0
1163,-2e-05,-3e-05,-8e-05,-5e-05,-1e-05,-2e-05,0.0,1e-05,1,27.0
1164,-2e-05,-3e-05,-8e-05,-5e-05,-1e-05,-2e-05,0.0,1e-05,1,27.0
1165,-2e-05,-3e-05,-8e-05,-5e-05,-1e-05,-2e-05,0.0,1e-05,1,27.0
1166,-2e-05,-3e-05,-8e-05,-5e-05,-1e-05,-2e-05,0.0,1e-05,1,27.0
1167,-2e-05,-3e-05,-8e-05,-5e-05,-1e-05,-2e-05,0.0,1e-05,1,27.0
1168,-2e-05,-2e-05,2e-05,-1e-05,-1e-05,-2e-05,-3e-05,-2e-05,1,27.0
1169,-3e-05,-2e-05,-7e-05,-1e-05,-2e-05,-3e-05,0.0,-1e-05,1,27.0
1170,-3e-05,-2e-05,-7e-05,-1e-05,-2e-05,-3e-05,0.0,-1e-05,1,27.0
1171,-3e-05,-2e-05,-7e-05,-1e-05,-2e-05,-3e-05,0.0,-1e-05,1,27.0
1172,-3e-05,-2e-05,-7e-05,-1e-05,-2e-05,-3e-05,0.0,-1e-05,1,27.0
1173,-3e-05,-2e-05,-7e-05,-1e-05,-2e-05,-3e-05,0.0,-1e-05,1,27.0
1174,-3e-05,-2e-05,-7e-05,-1e-05,-2e-05,-3e-05,0.0,-1e-05,1,27.0
1175,-3e-05,-2e-05,-7e-05,-1e-05,-2e-05,-3e-05,0.0,-1e-05,1,27.0
1176,-3e-05,-2e-05,-7e-05,-1e-05,-2e-05,-3e-05,0.0,-1e-05,1,27.0
1177,-3e-05,-2e-05,-7e-05,-1e-05,-2e-05,-3e-05,0.0,-1e-05,1,27.0
1178,-3e-05,-2e-05,-7e-05,-1e-05,-2e-05,-3e-05,0.0,-1e-05,1,27.0
1179,-3e-05,-2e-05,-7e-05,-1e-05,-2e-05,-3e-05,0.0,-1e-05,1,27.0
1180,-3e-05,-2e-05,-7e-05,-1e-05,-2e-05,-3e-05,0.0,-1e-05,1,27.0
1181,-3e-05,-2e-05,-7e-05,-1e-05,-2e-05,-3e-05,0.0,-1e-05,1,27.0
1182,-1e-05,1e-05,4e-05,4e-05,-3e-05,-4e-05,-1e-05,-1e-05,1,27.0
1183,-1e-05,1e-05,4e-05,4e-05,-3e-05,-4e-05,-1e-05,-1e-05,1,27.0
1184,-1e-05,1e-05,4e-05,4e-05,-3e-05,-4e-05,-1e-05,-1e-05,1,27.0
1185,-1e-05,1e-05,4e-05,4e-05,-3e-05,-4e-05,-1e-05,-1e-05,1,27.0
1186,-1e-05,1e-05,4e-05,4e-05,-3e-05,-4e-05,-1e-05,-1e-05,1,27.0
1189,1e-05,1e-05,1e-05,1e-05,-1e-05,0.0,0.0,-1e-05,1,27.0
1190,1e-05,1e-05,1e-05,1e-05,-1e-05,0.0,0.0,-1e-05,1,27.0
1191,1e-05,1e-05,1e-05,1e-05,-1e-05,0.0,0.0,-1e-05,1,27.0
1192,1e-05,1e-05,1e-05,1e-05,-1e-05,0.0,0.0,-1e-05,1,27.0
1193,1e-05,1e-05,1e-05,1e-05,-1e-05,0.0,0.0,-1e-05,1,27.0
1194,1e-05,1e-05,1e-05,1e-05,-1e-05,0.0,0.0,-1e-05,1,27.0
1195,1e-05,1e-05,1e-05,1e-05,-1e-05,0.0,0.0,-1e-05,1,27.0
1196,1e-05,1e-05,1e-05,1e-05,-1e-05,0.0,0.0,-1e-05,1,27.0
1197,1e-05,1e-05,1e-05,1e-05,-1e-05,0.0,0.0,-1e-05,1,27.0
1198,1e-05,1e-05,1e-05,1e-05,-1e-05,0.0,0.0,-1e-05,1,27.0
1199,1e-05,1e-05,1e-05,1e-05,-1e-05,0.0,0.0,-1e-05,1,27.0
1200,1e-05,1e-05,1e-05,1e-05,-1e-05,0.0,0.0,-1e-05,1,27.0
1201,1e-05,1e-05,1e-05,1e-05,-1e-05,0.0,0.0,-1e-05,1,27.0
1202,1e-05,1e-05,1e-05,1e-05,-1e-05,0.0,0.0,-1e-05,1,27.0
1203,1e-05,1e-05,1e-05,1e-05,-1e-05,0.0,0.0,-1e-05,1,27.0
1204,1e-05,1e-05,1e-05,1e-05,-1e-05,0.0,0.0,-1e-05,1,27.0
1205,-1e-05,-2e-05,0.0,0.0,-1e-05,-4e-05,-1e-05,0.0,1,27.0
1206,2e-05,0.0,0.0,-1e-05,0.0,-1e-05,1e-05,-2e-05,1,27.0
1207,0.0,-1e-05,-4e-05,-4e-05,-1e-05,-3e-05,-3e-05,0.0,1,27.0
1208,0.0,-1e-05,-4e-05,-4e-05,-1e-05,-3e-05,-3e-05,0.0,1,27.0
1209,0.0,-1e-05,-4e-05,-4e-05,-1e-05,-3e-05,-3e-05,0.0,1,27.0
1210,0.0,-1e-05,-4e-05,-4e-05,-1e-05,-3e-05,-3e-05,0.0,1,27.0
1211,0.0,-1e-05,-4e-05,-4e-05,-1e-05,-3e-05,-3e-05,0.0,1,27.0
1212,0.0,-1e-05,-4e-05,-4e-05,-1e-05,-3e-05,-3e-05,0.0,1,27.0
1213,0.0,-1e-05,-4e-05,-4e-05,-1e-05,-3e-05,-3e-05,0.0,1,27.0
1214,0.0,-1e-05,-4e-05,-4e-05,-1e-05,-3e-05,-3e-05,0.0,1,27.0
1215,0.0,-1e-05,-4e-05,-4e-05,-1e-05,-3e-05,-3e-05,0.0,1,27.0
1216,0.0,-1e-05,-4e-05,-4e-05,-1e-05,-3e-05,-3e-05,0.0,1,27.0
1217,0.0,-1e-05,-4e-05,-4e-05,-1e-05,-3e-05,-3e-05,0.0,1,27.0
1218,0.0,-1e-05,-4e-05,-4e-05,-1e-05,-3e-05,-3e-05,0.0,1,27.0
1219,0.0,-1e-05,-4e-05,-4e-05,-1e-05,-3e-05,-3e-05,0.0,1,27.0
1220,0.0,-1e-05,-4e-05,-4e-05,-1e-05,-3e-05,-3e-05,0.0,1,27.0
1221,0.0,-1e-05,-4e-05,-4e-05,-1e-05,-3e-05,-3e-05,0.0,1,27.0
1222,0.0,-1e-05,-4e-05,-4e-05,-1e-05,-3e-05,-3e-05,0.0,1,27.0
1223,0.0,-1e-05,-4e-05,-4e-05,-1e-05,-3e-05,-3e-05,0.0,1,27.0
1224,0.0,-1e-05,-4e-05,-4e-05,-1e-05,-3e-05,-3e-05,0.0,1,27.0
1225,0.0,-1e-05,-4e-05,-4e-05,-1e-05,-3e-05,-3e-05,0.0,1,27.0
1226,0.0,-1e-05,-4e-05,-4e-05,-1e-05,-3e-05,-3e-05,0.0,1,27.0
1227,0.0,-1e-05,-4e-05,-4e-05,-1e-05,-3e-05,-3e-05,0.0,1,27.0
1228,0.0,2e-05,0.0,0.0,1e-05,2e-05,1e-05,-1e-05,1,27.0
1229,-1e-05,1e-05,-3e-05,-1e-05,-2e-05,0.0,0.0,-3e-05,1,27.0
1230,-3e-05,-3e-05,4e-05,1e-05,-1e-05,-1e-05,-2e-05,-1e-05,1,27.0
1231,-3e-05,-3e-05,4e-05,1e-05,-1e-05,-1e-05,-2e-05,-1e-05,1,27.0
1232,-3e-05,-3e-05,4e-05,1e-05,-1e-05,-1e-05,-2e-05,-1e-05,1,27.0
1233,-3e-05,-3e-05,4e-05,1e-05,-1e-05,-1e-05,-2e-05,-1e-05,1,27.0
1234,-3e-05,-3e-05,4e-05,1e-05,-1e-05,-1e-05,-2e-05,-1e-05,1,27.0
1235,-3e-05,-3e-05,4e-05,1e-05,-1e-05,-1e-05,-2e-05,-1e-05,1,27.0
1236,-3e-05,-3e-05,4e-05,1e-05,-1e-05,-1e-05,-2e-05,-1e-05,1,27.0
1239,-3e-05,-3e-05,4e-05,1e-05,-1e-05,-1e-05,-2e-05,-1e-05,1,27.0
1240,-3e-05,-3e-05,4e-05,1e-05,-1e-05,-1e-05,-2e-05,-1e-05,1,27.0
1241,-3e-05,-3e-05,4e-05,1e-05,-1e-05,-1e-05,-2e-05,-1e-05,1,27.0
1242,0.0,-3e-05,-0.00011,0.0,-1e-05,-6e-05,-2e-05,1e-05,1,27.0
1243,0.0,-3e-05,-0.00011,0.0,-1e-05,-6e-05,-2e-05,1e-05,1,27.0
1244,0.0,-3e-05,-0.00011,0.0,-1e-05,-6e-05,-2e-05,1e-05,1,27.0
1245,0.0,-3e-05,-0.00011,0.0,-1e-05,-6e-05,-2e-05,1e-05,1,27.0
1246,0.0,-3e-05,-0.00011,0.0,-1e-05,-6e-05,-2e-05,1e-05,1,27.0
1247,0.0,-3e-05,-0.00011,0.0,-1e-05,-6e-05,-2e-05,1e-05,1,27.0
1248,0.0,-3e-05,-0.00011,0.0,-1e-05,-6e-05,-2e-05,1e-05,1,27.0
1249,0.0,-3e-05,-0.00011,0.0,-1e-05,-6e-05,-2e-05,1e-05,1,27.0
1250,0.0,-3e-05,-0.00011,0.0,-1e-05,-6e-05,-2e-05,1e-05,1,27.0
1251,0.0,3e-05,1e-05,1e-05,0.0,-4e-05,0.0,1e-05,1,27.0
1252,0.0,3e-05,1e-05,1e-05,0.0,-4e-05,0.0,1e-05,1,27.0
1253,0.0,3e-05,1e-05,1e-05,0.0,-4e-05,0.0,1e-05,1,27.0
1254,0.0,3e-05,1e-05,1e-05,0.0,-4e-05,0.0,1e-05,1,27.0
1255,0.0,3e-05,1e-05,1e-05,0.0,-4e-05,0.0,1e-05,1,27.0
1256,0.0,3e-05,1e-05,1e-05,0.0,-4e-05,0.0,1e-05,1,27.0
1257,0.0,3e-05,1e-05,1e-05,0.0,-4e-05,0.0,1e-05,1,27.0
1258,0.0,3e-05,1e-05,1e-05,0.0,-4e-05,0.0,1e-05,1,27.0
1259,0.0,3e-05,1e-05,1e-05,0.0,-4e-05,0.0,1e-05,1,27.0
1260,0.0,3e-05,1e-05,1e-05,0.0,-4e-05,0.0,1e-05,1,27.0
1261,0.0,3e-05,1e-05,1e-05,0.0,-4e-05,0.0,1e-05,1,27.0
1262,0.0,3e-05,1e-05,1e-05,0.0,-4e-05,0.0,1e-05,1,27.0
1263,0.0,3e-05,1e-05,1e-05,0.0,-4e-05,0.0,1e-05,1,27.0
1264,0.0,3e-05,1e-05,1e-05,0.0,-4e-05,0.0,1e-05,1,27.0
1265,-1e-05,-1e-05,0.0,1e-05,-1e-05,-5e-05,-3e-05,2e-05,1,27.0
1266,0.0,-1e-05,-2e-05,-6e-05,2e-05,4e-05,-1e-05,0.0,1,27.0
1267,-2e-05,3e-05,-1e-05,0.0,0.0,-2e-05,0.0,-1e-05,1,27.0
1268,-2e-05,3e-05,-1e-05,0.0,0.0,-2e-05,0.0,-1e-05,1,27.0
1269,-2e-05,3e-05,-1e-05,0.0,0.0,-2e-05,0.0,-1e-05,1,27.0
1270,-2e-05,3e-05,-1e-05,0.0,0.0,-2e-05,0.0,-1e-05,1,27.0
1271,-2e-05,3e-05,-1e-05,0.0,0.0,-2e-05,0.0,-1e-05,1,27.0
1272,-2e-05,3e-05,-1e-05,0.0,0.0,-2e-05,0.0,-1e-05,1,27.0
1273,-2e-05,3e-05,-1e-05,0.0,0.0,-2e-05,0.0,-1e-05,1,27.0
1274,-2e-05,3e-05,-1e-05,0.0,0.0,-2e-05,0.0,-1e-05,1,27.0
1275,-2e-05,3e-05,-1e-05,0.0,0.0,-2e-05,0.0,-1e-05,1,27.0
1276,-2e-05,3e-05,-1e-05,0.0,0.0,-2e-05,0.0,-1e-05,1,27.0
1277,-2e-05,3e-05,-1e-05,0.0,0.0,-2e-05,0.0,-1e-05,1,27.0
1278,-2e-05,3e-05,-1e-05,0.0,0.0,-2e-05,0.0,-1e-05,1,27.0
1279,-2e-05,3e-05,-1e-05,0.0,0.0,-2e-05,0.0,-1e-05,1,27.0
1280,-2e-05,3e-05,-1e-05,0.0,0.0,-2e-05,0.0,-1e-05,1,27.0
1281,-2e-05,3e-05,-1e-05,0.0,0.0,-2e-05,0.0,-1e-05,1,27.0
1282,-2e-05,3e-05,-1e-05,0.0,0.0,-2e-05,0.0,-1e-05,1,27.0
1283,-2e-05,3e-05,-1e-05,0.0,0.0,-2e-05,0.0,-1e-05,1,27.0
1284,-2e-05,3e-05,-1e-05,0.0,0.0,-2e-05,0.0,-1e-05,1,27.0
1285,-2e-05,3e-05,-1e-05,0.0,0.0,-2e-05,0.0,-1e-05,1,27.0
1286,-2e-05,3e-05,-1e-05,0.0,0.0,-2e-05,0.0,-1e-05,1,27.0
1289,0.0,-1e-05,-3e-05,-4e-05,0.0,1e-05,-1e-05,-5e-05,1,27.0
1290,1e-05,1e-05,5e-05,-2e-05,-1e-05,-4e-05,-2e-05,-2e-05,1,27.0
1291,1e-05,1e-05,5e-05,-2e-05,-1e-05,-4e-05,-2e-05,-2e-05,1,27.0
1292,1e-05,1e-05,5e-05,-2e-05,-1e-05,-4e-05,-2e-05,-2e-05,1,27.0
1293,1e-05,1e-05,5e-05,-2e-05,-1e-05,-4e-05,-2e-05,-2e-05,1,27.0
1294,1e-05,1e-05,5e-05,-2e-05,-1e-05,-4e-05,-2e-05,-2e-05,1,27.0
1295,1e-05,1e-05,5e-05,-2e-05,-1e-05,-4e-05,-2e-05,-2e-05,1,27.0
1296,1e-05,1e-05,5e-05,-2e-05,-1e-05,-4e-05,-2e-05,-2e-05,1,27.0
1297,1e-05,1e-05,5e-05,-2e-05,-1e-05,-4e-05,-2e-05,-2e-05,1,27.0
1298,1e-05,1e-05,5e-05,-2e-05,-1e-05,-4e-05,-2e-05,-2e-05,1,27.0
1299,1e-05,1e-05,5e-05,-2e-05,-1e-05,-4e-05,-2e-05,-2e-05,1,27.0
1300,1e-05,1e-05,5e-05,-2e-05,-1e-05,-4e-05,-2e-05,-2e-05,1,27.0
1301,1e-05,1e-05,5e-05,-2e-05,-1e-05,-4e-05,-2e-05,-2e-05,1,27.0
1302,-2e-05,-1e-05,-5e-05,-4e-05,-3e-05,0.0,-2e-05,0.0,1,27.0
1303,-2e-05,-1e-05,-5e-05,-4e-05,-3e-05,0.0,-2e-05,0.0,1,27.0
1304,-2e-05,-1e-05,-5e-05,-4e-05,-3e-05,0.0,-2e-05,0.0,1,27.0
1305,-2e-05,-1e-05,-5e-05,-4e-05,-3e-05,0.0,-2e-05,0.0,1,27.0
1306,-2e-05,-1e-05,-5e-05,-4e-05,-3e-05,0.0,-2e-05,0.0,1,27.0
1307,-2e-05,-1e-05,-5e-05,-4e-05,-3e-05,0.0,-2e-05,0.0,1,27.0
1308,-2e-05,-1e-05,-5e-05,-4e-05,-3e-05,0.0,-2e-05,0.0,1,27.0
1309,-2e-05,-1e-05,-5e-05,-4e-05,-3e-05,0.0,-2e-05,0.0,1,27.0
1310,-2e-05,-1e-05,-5e-05,-4e-05,-3e-05,0.0,-2e-05,0.0,1,27.0
1311,-1e-05,-1e-05,0.0,4e-05,2e-05,2e-05,0.0,-1e-05,1,27.0
1312,-1e-05,-1e-05,0.0,4e-05,2e-05,2e-05,0.0,-1e-05,1,27.0
1313,-1e-05,-1e-05,0.0,4e-05,2e-05,2e-05,0.0,-1e-05,1,27.0
1314,-1e-05,-1e-05,0.0,4e-05,2e-05,2e-05,0.0,-1e-05,1,27.0
1315,-1e-05,-1e-05,0.0,4e-05,2e-05,2e-05,0.0,-1e-05,1,27.0
1316,-1e-05,-1e-05,0.0,4e-05,2e-05,2e-05,0.0,-1e-05,1,27.0
1317,-1e-05,-1e-05,0.0,4e-05,2e-05,2e-05,0.0,-1e-05,1,27.0
1318,-1e-05,-1e-05,0.0,4e-05,2e-05,2e-05,0.0,-1e-05,1,27.0
1319,-1e-05,-1e-05,0.0,4e-05,2e-05,2e-05,0.0,-1e-05,1,27.0
1320,-1e-05,-1e-05,0.0,4e-05,2e-05,2e-05,0.0,-1e-05,1,27.0
1321,-1e-05,-1e-05,0.0,4e-05,2e-05,2e-05,0.0,-1e-05,1,27.0
1322,-1e-05,-1e-05,0.0,4e-05,2e-05,2e-05,0.0,-1e-05,1,27.0
1323,-1e-05,-1e-05,0.0,4e-05,2e-05,2e-05,0.0,-1e-05,1,27.0
1324,-1e-05,-1e-05,0.0,4e-05,2e-05,2e-05,0.0,-1e-05,1,27.0
1325,-1e-05,-1e-05,0.0,4e-05,2e-05,2e-05,0.0,-1e-05,1,27.0
1326,2e-05,-1e-05,3e-05,4e-05,1e-05,0.0,0.0,0.0,1,27.0
1327,2e-05,-1e-05,3e-05,4e-05,1e-05,0.0,0.0,0.0,1,27.0
1328,-2e-05,0.0,-1e-05,-1e-05,-1e-05,1e-05,0.0,0.0,1,27.0
1329,-2e-05,0.0,-1e-05,-1e-05,-1e-05,1e-05,0.0,0.0,1,27.0
1330,-2e-05,0.0,-1e-05,-1e-05,-1e-05,1e-05,0.0,0.0,1,27.0
1331,-2e-05,0.0,-1e-05,-1e-05,-1e-05,1e-05,0.0,0.0,1,27.0
1332,-2e-05,0.0,-1e-05,-1e-05,-1e-05,1e-05,0.0,0.0,1,27.0
1333,-2e-05,0.0,-1e-05,-1e-05,-1e-05,1e-05,0.0,0.0,1,27.0
1334,-2e-05,0.0,-1e-05,-1e-05,-1e-05,1e-05,0.0,0.0,1,27.0
1335,-2e-05,0.0,-1e-05,-1e-05,-1e-05,1e-05,0.0,0.0,1,27.0
1336,-2e-05,0.0,-1e-05,-1e-05,-1e-05,1e-05,0.0,0.0,1,27.0
1338,-2e-05,0.0,-1e-05,-1e-05,-1e-05,1e-05,0.0,0.0,1,27.0
1339,-2e-05,0.0,-1e-05,-1e-05,-1e-05,1e-05,0.0,0.0,1,27.0
1340,-2e-05,0.0,-1e-05,-1e-05,-1e-05,1e-05,0.0,0.0,1,27.0
1341,-2e-05,0.0,-1e-05,-1e-05,-1e-05,1e-05,0.0,0.0,1,27.0
1342,-2e-05,0.0,-1e-05,-1e-05,-1e-05,1e-05,0.0,0.0,1,27.0
1343,-2e-05,0.0,-1e-05,-1e-05,-1e-05,1e-05,0.0,0.0,1,27.0
1344,-2e-05,0.0,-1e-05,-1e-05,-1e-05,1e-05,0.0,0.0,1,27.0
1345,-2e-05,0.0,-1e-05,-1e-05,-1e-05,1e-05,0.0,0.0,1,27.0
1346,-2e-05,0.0,-1e-05,-1e-05,-1e-05,1e-05,0.0,0.0,1,27.0
1347,-2e-05,0.0,-1e-05,-1e-05,-1e-05,1e-05,0.0,0.0,1,27.0
1348,0.0,1e-05,2e-05,1e-05,-1e-05,-1e-05,-1e-05,-2e-05,1,27.0
1349,0.0,-5e-05,-5e-05,-4e-05,-1e-05,1e-05,-2e-05,0.0,1,27.0
1350,0.0,-5e-05,-5e-05,-4e-05,-1e-05,1e-05,-2e-05,0.0,1,27.0
1351,0.0,-5e-05,-5e-05,-4e-05,-1e-05,1e-05,-2e-05,0.0,1,27.0
1352,0.0,-5e-05,-5e-05,-4e-05,-1e-05,1e-05,-2e-05,0.0,1,27.0
1353,0.0,-5e-05,-5e-05,-4e-05,-1e-05,1e-05,-2e-05,0.0,1,27.0
1354,0.0,-5e-05,-5e-05,-4e-05,-1e-05,1e-05,-2e-05,0.0,1,27.0
1355,0.0,-5e-05,-5e-05,-4e-05,-1e-05,1e-05,-2e-05,0.0,1,27.0
1356,0.0,-5e-05,-5e-05,-4e-05,-1e-05,1e-05,-2e-05,0.0,1,27.0
1357,0.0,-5e-05,-5e-05,-4e-05,-1e-05,1e-05,-2e-05,0.0,1,27.0
1358,0.0,-5e-05,-5e-05,-4e-05,-1e-05,1e-05,-2e-05,0.0,1,27.0
1359,0.0,-5e-05,-5e-05,-4e-05,-1e-05,1e-05,-2e-05,0.0,1,27.0
1360,0.0,-5e-05,-5e-05,-4e-05,-1e-05,1e-05,-2e-05,0.0,1,27.0
1361,0.0,-5e-05,-5e-05,-4e-05,-1e-05,1e-05,-2e-05,0.0,1,27.0
1362,-2e-05,2e-05,3e-05,-3e-05,-1e-05,-3e-05,-1e-05,1e-05,1,27.0
1363,-2e-05,2e-05,3e-05,-3e-05,-1e-05,-3e-05,-1e-05,1e-05,1,27.0
1364,-2e-05,2e-05,3e-05,-3e-05,-1e-05,-3e-05,-1e-05,1e-05,1,27.0
1365,-2e-05,2e-05,3e-05,-3e-05,-1e-05,-3e-05,-1e-05,1e-05,1,27.0
1366,-2e-05,2e-05,3e-05,-3e-05,-1e-05,-3e-05,-1e-05,1e-05,1,27.0
1367,-2e-05,2e-05,3e-05,-3e-05,-1e-05,-3e-05,-1e-05,1e-05,1,27.0
1368,-2e-05,2e-05,3e-05,-3e-05,-1e-05,-3e-05,-1e-05,1e-05,1,27.0
1369,-2e-05,2e-05,3e-05,-3e-05,-1e-05,-3e-05,-1e-05,1e-05,1,27.0
1370,-2e-05,2e-05,3e-05,-3e-05,-1e-05,-3e-05,-1e-05,1e-05,1,27.0
1371,-2e-05,2e-05,3e-05,-3e-05,-1e-05,-3e-05,-1e-05,1e-05,1,27.0
1372,-2e-05,2e-05,3e-05,-3e-05,-1e-05,-3e-05,-1e-05,1e-05,1,27.0
1373,-2e-05,2e-05,3e-05,-3e-05,-1e-05,-3e-05,-1e-05,1e-05,1,27.0
1374,-2e-05,2e-05,3e-05,-3e-05,-1e-05,-3e-05,-1e-05,1e-05,1,27.0
1375,-2e-05,2e-05,3e-05,-3e-05,-1e-05,-3e-05,-1e-05,1e-05,1,27.0
1376,-2e-05,2e-05,3e-05,-3e-05,-1e-05,-3e-05,-1e-05,1e-05,1,27.0
1377,-2e-05,2e-05,3e-05,-3e-05,-1e-05,-3e-05,-1e-05,1e-05,1,27.0
1378,-2e-05,2e-05,3e-05,-3e-05,-1e-05,-3e-05,-1e-05,1e-05,1,27.0
1379,-2e-05,2e-05,3e-05,-3e-05,-1e-05,-3e-05,-1e-05,1e-05,1,27.0
1380,-2e-05,2e-05,3e-05,-3e-05,-1e-05,-3e-05,-1e-05,1e-05,1,27.0
1381,-2e-05,2e-05,3e-05,-3e-05,-1e-05,-3e-05,-1e-05,1e-05,1,27.0
1382,-2e-05,2e-05,3e-05,-3e-05,-1e-05,-3e-05,-1e-05,1e-05,1,27.0
1383,-2e-05,2e-05,3e-05,-3e-05,-1e-05,-3e-05,-1e-05,1e-05,1,27.0
1384,-2e-05,2e-05,3e-05,-3e-05,-1e-05,-3e-05,-1e-05,1e-05,1,27.0
1385,-2e-05,2e-05,3e-05,-3e-05,-1e-05,-3e-05,-1e-05,1e-05,1,27.0
1387,-2e-05,2e-05,3e-05,-3e-05,-1e-05,-3e-05,-1e-05,1e-05,1,27.0
1390,-2e-05,0.0,1e-05,0.0,1e-05,-1e-05,0.0,1e-05,1,27.0
1391,-2e-05,0.0,1e-05,0.0,1e-05,-1e-05,0.0,1e-05,1,27.0
1392,-2e-05,0.0,1e-05,0.0,1e-05,-1e-05,0.0,1e-05,1,27.0
1393,-2e-05,0.0,1e-05,0.0,1e-05,-1e-05,0.0,1e-05,1,27.0
1394,-2e-05,0.0,1e-05,0.0,1e-05,-1e-05,0.0,1e-05,1,27.0
1395,-2e-05,0.0,1e-05,0.0,1e-05,-1e-05,0.0,1e-05,1,27.0
1396,-2e-05,0.0,1e-05,0.0,1e-05,-1e-05,0.0,1e-05,1,27.0
1397,-2e-05,0.0,1e-05,0.0,1e-05,-1e-05,0.0,1e-05,1,27.0
1398,-2e-05,0.0,1e-05,0.0,1e-05,-1e-05,0.0,1e-05,1,27.0
1399,-1e-05,-1e-05,-0.00012,-1e-05,-3e-05,-7e-05,-3e-05,-2e-05,1,27.0
1400,-1e-05,-1e-05,-0.00012,-1e-05,-3e-05,-7e-05,-3e-05,-2e-05,1,27.0
1401,-1e-05,-1e-05,-0.00012,-1e-05,-3e-05,-7e-05,-3e-05,-2e-05,1,27.0
1402,-1e-05,-1e-05,-0.00012,-1e-05,-3e-05,-7e-05,-3e-05,-2e-05,1,27.0
1403,-1e-05,-1e-05,-0.00012,-1e-05,-3e-05,-7e-05,-3e-05,-2e-05,1,27.0
1404,-1e-05,-1e-05,-0.00012,-1e-05,-3e-05,-7e-05,-3e-05,-2e-05,1,27.0
1405,-1e-05,-1e-05,-0.00012,-1e-05,-3e-05,-7e-05,-3e-05,-2e-05,1,27.0
1406,-1e-05,-1e-05,-0.00012,-1e-05,-3e-05,-7e-05,-3e-05,-2e-05,1,27.0
1407,-1e-05,-1e-05,-0.00012,-1e-05,-3e-05,-7e-05,-3e-05,-2e-05,1,27.0
1408,0.0,-3e-05,0.0,3e-05,-1e-05,0.0,-1e-05,0.0,1,27.0
1409,0.0,-3e-05,0.0,3e-05,-1e-05,0.0,-1e-05,0.0,1,27.0
1410,0.0,0.0,4e-05,-2e-05,0.0,1e-05,2e-05,-1e-05,1,27.0
1411,0.0,0.0,4e-05,-2e-05,0.0,1e-05,2e-05,-1e-05,1,27.0
1412,0.0,0.0,4e-05,-2e-05,0.0,1e-05,2e-05,-1e-05,1,27.0
1413,0.0,0.0,4e-05,-2e-05,0.0,1e-05,2e-05,-1e-05,1,27.0
1414,0.0,0.0,4e-05,-2e-05,0.0,1e-05,2e-05,-1e-05,1,27.0
1415,0.0,0.0,4e-05,-2e-05,0.0,1e-05,2e-05,-1e-05,1,27.0
1416,0.0,0.0,4e-05,-2e-05,0.0,1e-05,2e-05,-1e-05,1,27.0
1417,0.0,0.0,4e-05,-2e-05,0.0,1e-05,2e-05,-1e-05,1,27.0
1418,0.0,0.0,4e-05,-2e-05,0.0,1e-05,2e-05,-1e-05,1,27.0
1419,0.0,0.0,4e-05,-2e-05,0.0,1e-05,2e-05,-1e-05,1,27.0
1420,0.0,0.0,4e-05,-2e-05,0.0,1e-05,2e-05,-1e-05,1,27.0
1421,0.0,0.0,4e-05,-2e-05,0.0,1e-05,2e-05,-1e-05,1,27.0
1422,2e-05,1e-05,2e-05,-4e-05,-4e-05,0.0,-1e-05,0.0,1,27.0
1423,2e-05,1e-05,2e-05,-4e-05,-4e-05,0.0,-1e-05,0.0,1,27.0
1424,2e-05,1e-05,2e-05,-4e-05,-4e-05,0.0,-1e-05,0.0,1,27.0
1425,2e-05,1e-05,2e-05,-4e-05,-4e-05,0.0,-1e-05,0.0,1,27.0
1426,2e-05,1e-05,2e-05,-4e-05,-4e-05,0.0,-1e-05,0.0,1,27.0
1427,2e-05,1e-05,2e-05,-4e-05,-4e-05,0.0,-1e-05,0.0,1,27.0
1428,2e-05,1e-05,2e-05,-4e-05,-4e-05,0.0,-1e-05,0.0,1,27.0
1429,2e-05,1e-05,2e-05,-4e-05,-4e-05,0.0,-1e-05,0.0,1,27.0
1430,2e-05,1e-05,2e-05,-4e-05,-4e-05,0.0,-1e-05,0.0,1,27.0
1431,-1e-05,-3e-05,0.0,-4e-05,-3e-05,-1e-05,1e-05,-5e-05,1,27.0
1432,-1e-05,-3e-05,0.0,-4e-05,-3e-05,-1e-05,1e-05,-5e-05,1,27.0
1433,-1e-05,-3e-05,0.0,-4e-05,-3e-05,-1e-05,1e-05,-5e-05,1,27.0
1434,-1e-05,-3e-05,0.0,-4e-05,-3e-05,-1e-05,1e-05,-5e-05,1,27.0
1435,-1e-05,-3e-05,0.0,-4e-05,-3e-05,-1e-05,1e-05,-5e-05,1,27.0
1436,-1e-05,-3e-05,0.0,-4e-05,-3e-05,-1e-05,1e-05,-5e-05,1,27.0
1439,-1e-05,-3e-05,0.0,-4e-05,-3e-05,-1e-05,1e-05,-5e-05,1,27.0
1440,-1e-05,-3e-05,0.0,-4e-05,-3e-05,-1e-05,1e-05,-5e-05,1,27.0
1441,-1e-05,-3e-05,0.0,-4e-05,-3e-05,-1e-05,1e-05,-5e-05,1,27.0
1442,-1e-05,-3e-05,0.0,-4e-05,-3e-05,-1e-05,1e-05,-5e-05,1,27.0
1443,-1e-05,-3e-05,0.0,-4e-05,-3e-05,-1e-05,1e-05,-5e-05,1,27.0
1444,-1e-05,-3e-05,0.0,-4e-05,-3e-05,-1e-05,1e-05,-5e-05,1,27.0
1445,-2e-05,-3e-05,5e-05,-1e-05,0.0,1e-05,-2e-05,-1e-05,1,27.0
1446,-2e-05,-3e-05,5e-05,-1e-05,0.0,1e-05,-2e-05,-1e-05,1,27.0
1447,0.0,0.0,-2e-05,0.0,-1e-05,0.00018,1e-05,0.0,1,27.0
1448,0.0,0.0,-2e-05,0.0,-1e-05,0.00018,1e-05,0.0,1,27.0
1449,0.0,0.0,-2e-05,0.0,-1e-05,0.00018,1e-05,0.0,1,27.0
1450,0.0,0.0,-2e-05,0.0,-1e-05,0.00018,1e-05,0.0,1,27.0
1451,0.0,0.0,-2e-05,0.0,-1e-05,0.00018,1e-05,0.0,1,27.0
1452,0.0,0.0,-2e-05,0.0,-1e-05,0.00018,1e-05,0.0,1,27.0
1453,0.0,0.0,-2e-05,0.0,-1e-05,0.00018,1e-05,0.0,1,27.0
1454,0.0,0.0,-2e-05,0.0,-1e-05,0.00018,1e-05,0.0,1,27.0
1455,0.0,0.0,-2e-05,0.0,-1e-05,0.00018,1e-05,0.0,1,27.0
1456,0.0,0.0,-2e-05,0.0,-1e-05,0.00018,1e-05,0.0,1,27.0
1457,0.0,0.0,-2e-05,0.0,-1e-05,0.00018,1e-05,0.0,1,27.0
1458,0.0,0.0,-2e-05,0.0,-1e-05,0.00018,1e-05,0.0,1,27.0
1459,0.0,0.0,-2e-05,0.0,-1e-05,0.00018,1e-05,0.0,1,27.0
1460,0.0,0.0,-2e-05,0.0,-1e-05,0.00018,1e-05,0.0,1,27.0
1461,0.0,0.0,-2e-05,0.0,-1e-05,0.00018,1e-05,0.0,1,27.0
1462,0.0,0.0,-2e-05,0.0,-1e-05,0.00018,1e-05,0.0,1,27.0
1463,0.0,0.0,-2e-05,0.0,-1e-05,0.00018,1e-05,0.0,1,27.0
1464,0.0,0.0,-2e-05,0.0,-1e-05,0.00018,1e-05,0.0,1,27.0
1465,0.0,0.0,-2e-05,0.0,-1e-05,0.00018,1e-05,0.0,1,27.0
1466,0.0,0.0,-2e-05,0.0,-1e-05,0.00018,1e-05,0.0,1,27.0
1467,0.0,0.0,-2e-05,0.0,-1e-05,0.00018,1e-05,0.0,1,27.0
1468,0.0,0.0,-2e-05,0.0,-1e-05,0.00018,1e-05,0.0,1,27.0
1469,-3e-05,-1e-05,-2e-05,-1e-05,-1e-05,-1e-05,-2e-05,0.0,1,27.0
1470,0.0,-2e-05,1e-05,1e-05,1e-05,-4e-05,-2e-05,-1e-05,1,27.0
1472,0.0,-2e-05,1e-05,1e-05,1e-05,-4e-05,-2e-05,-1e-05,1,27.0
1473,0.0,-2e-05,1e-05,1e-05,1e-05,-4e-05,-2e-05,-1e-05,1,27.0
1474,0.0,-2e-05,1e-05,1e-05,1e-05,-4e-05,-2e-05,-1e-05,1,27.0
1475,0.0,-2e-05,1e-05,1e-05,1e-05,-4e-05,-2e-05,-1e-05,1,27.0
1476,0.0,-2e-05,1e-05,1e-05,1e-05,-4e-05,-2e-05,-1e-05,1,27.0
1477,0.0,-2e-05,1e-05,1e-05,1e-05,-4e-05,-2e-05,-1e-05,1,27.0
1478,0.0,-2e-05,1e-05,1e-05,1e-05,-4e-05,-2e-05,-1e-05,1,27.0
1479,0.0,-2e-05,1e-05,1e-05,1e-05,-4e-05,-2e-05,-1e-05,1,27.0
1480,0.0,-2e-05,1e-05,1e-05,1e-05,-4e-05,-2e-05,-1e-05,1,27.0
1481,0.0,-2e-05,1e-05,1e-05,1e-05,-4e-05,-2e-05,-1e-05,1,27.0
1482,-1e-05,-1e-05,-1e-05,7e-05,0.0,-1e-05,0.0,0.0,1,27.0
1483,-1e-05,-1e-05,-1e-05,7e-05,0.0,-1e-05,0.0,0.0,1,27.0
1484,-1e-05,-1e-05,-1e-05,7e-05,0.0,-1e-05,0.0,0.0,1,27.0
1485,-1e-05,-1e-05,-1e-05,7e-05,0.0,-1e-05,0.0,0.0,1,27.0
1486,-1e-05,-1e-05,-1e-05,7e-05,0.0,-1e-05,0.0,0.0,1,27.0
1489,-1e-05,-1e-05,-1e-05,7e-05,0.0,-1e-05,0.0,0.0,1,27.0
1490,-1e-05,-1e-05,-1e-05,7e-05,0.0,-1e-05,0.0,0.0,1,27.0
1491,-1e-05,-1e-05,-1e-05,7e-05,0.0,-1e-05,0.0,0.0,1,27.0
1492,-1e-05,-1e-05,-1e-05,7e-05,0.0,-1e-05,0.0,0.0,1,27.0
1493,-1e-05,-1e-05,-1e-05,7e-05,0.0,-1e-05,0.0,0.0,1,27.0
1494,-1e-05,-1e-05,-1e-05,7e-05,0.0,-1e-05,0.0,0.0,1,27.0
1495,-1e-05,-1e-05,-1e-05,7e-05,0.0,-1e-05,0.0,0.0,1,27.0
1496,-1e-05,-1e-05,-1e-05,7e-05,0.0,-1e-05,0.0,0.0,1,27.0
1497,0.0,-1e-05,-3e-05,3e-05,-3e-05,-3e-05,1e-05,0.0,1,27.0
1498,0.0,-1e-05,-3e-05,3e-05,-3e-05,-3e-05,1e-05,0.0,1,27.0
1499,0.0,-1e-05,-3e-05,3e-05,-3e-05,-3e-05,1e-05,0.0,1,27.0
1500,0.0,-1e-05,-3e-05,3e-05,-3e-05,-3e-05,1e-05,0.0,1,27.0
1501,0.0,-1e-05,-3e-05,3e-05,-3e-05,-3e-05,1e-05,0.0,1,27.0
1502,0.0,-1e-05,-3e-05,3e-05,-3e-05,-3e-05,1e-05,0.0,1,27.0
1503,0.0,-1e-05,-3e-05,3e-05,-3e-05,-3e-05,1e-05,0.0,1,27.0
1504,0.0,-1e-05,-3e-05,3e-05,-3e-05,-3e-05,1e-05,0.0,1,27.0
1505,-2e-05,3e-05,0.0,-2e-05,-1e-05,-4e-05,-3e-05,-4e-05,1,27.0
1506,-2e-05,-1e-05,-3e-05,0.0,1e-05,2e-05,-2e-05,-2e-05,1,27.0
1507,-3e-05,-2e-05,-3e-05,-1e-05,1e-05,-4e-05,-3e-05,-3e-05,1,27.0
1508,-3e-05,-2e-05,-3e-05,-1e-05,1e-05,-4e-05,-3e-05,-3e-05,1,27.0
1509,-3e-05,-2e-05,-3e-05,-1e-05,1e-05,-4e-05,-3e-05,-3e-05,1,27.0
1510,-3e-05,-2e-05,-3e-05,-1e-05,1e-05,-4e-05,-3e-05,-3e-05,1,27.0
1511,-3e-05,-2e-05,-3e-05,-1e-05,1e-05,-4e-05,-3e-05,-3e-05,1,27.0
1512,-3e-05,-2e-05,-3e-05,-1e-05,1e-05,-4e-05,-3e-05,-3e-05,1,27.0
1513,-3e-05,-2e-05,-3e-05,-1e-05,1e-05,-4e-05,-3e-05,-3e-05,1,27.0
1514,-3e-05,-2e-05,-3e-05,-1e-05,1e-05,-4e-05,-3e-05,-3e-05,1,27.0
1515,-3e-05,-2e-05,-3e-05,-1e-05,1e-05,-4e-05,-3e-05,-3e-05,1,27.0
1516,-3e-05,-2e-05,-3e-05,-1e-05,1e-05,-4e-05,-3e-05,-3e-05,1,27.0
1517,-3e-05,-2e-05,-3e-05,-1e-05,1e-05,-4e-05,-3e-05,-3e-05,1,27.0
1518,-3e-05,-2e-05,-3e-05,-1e-05,1e-05,-4e-05,-3e-05,-3e-05,1,27.0
1519,-3e-05,-2e-05,-3e-05,-1e-05,1e-05,-4e-05,-3e-05,-3e-05,1,27.0
1520,-3e-05,-2e-05,-3e-05,-1e-05,1e-05,-4e-05,-3e-05,-3e-05,1,27.0
1521,-3e-05,-2e-05,-3e-05,-1e-05,1e-05,-4e-05,-3e-05,-3e-05,1,27.0
1522,-3e-05,-2e-05,-3e-05,-1e-05,1e-05,-4e-05,-3e-05,-3e-05,1,27.0
1523,-3e-05,-2e-05,-3e-05,-1e-05,1e-05,-4e-05,-3e-05,-3e-05,1,27.0
1524,-3e-05,-2e-05,-3e-05,-1e-05,1e-05,-4e-05,-3e-05,-3e-05,1,27.0
1525,-3e-05,-2e-05,-3e-05,-1e-05,1e-05,-4e-05,-3e-05,-3e-05,1,27.0
1526,-3e-05,-2e-05,-3e-05,-1e-05,1e-05,-4e-05,-3e-05,-3e-05,1,27.0
1527,-3e-05,-2e-05,-3e-05,-1e-05,1e-05,-4e-05,-3e-05,-3e-05,1,27.0
1528,-3e-05,-2e-05,-3e-05,-1e-05,1e-05,-4e-05,-3e-05,-3e-05,1,27.0
1529,-2e-05,0.0,-1e-05,3e-05,-1e-05,-2e-05,-1e-05,-3e-05,1,27.0
1530,-1e-05,-2e-05,0.0,0.0,-1e-05,-2e-05,-3e-05,3e-05,1,27.0
1531,-1e-05,-2e-05,0.0,0.0,-1e-05,-2e-05,-3e-05,3e-05,1,27.0
1532,-1e-05,-2e-05,0.0,0.0,-1e-05,-2e-05,-3e-05,3e-05,1,27.0
1533,-1e-05,-2e-05,0.0,0.0,-1e-05,-2e-05,-3e-05,3e-05,1,27.0
1534,-1e-05,-2e-05,0.0,0.0,-1e-05,-2e-05,-3e-05,3e-05,1,27.0
1535,-1e-05,-2e-05,0.0,0.0,-1e-05,-2e-05,-3e-05,3e-05,1,27.0
1536,-1e-05,-2e-05,0.0,0.0,-1e-05,-2e-05,-3e-05,3e-05,1,27.0
1538,-1e-05,-2e-05,0.0,0.0,-1e-05,-2e-05,-3e-05,3e-05,1,27.0
1540,-1e-05,-2e-05,0.0,0.0,-1e-05,-2e-05,-3e-05,3e-05,1,27.0
1541,-1e-05,-2e-05,0.0,0.0,-1e-05,-2e-05,-3e-05,3e-05,1,27.0
1542,-1e-05,-4e-05,-3e-05,-4e-05,-2e-05,-8e-05,0.0,4e-05,1,27.0
1543,-1e-05,-4e-05,-3e-05,-4e-05,-2e-05,-8e-05,0.0,4e-05,1,27.0
1544,-1e-05,-4e-05,-3e-05,-4e-05,-2e-05,-8e-05,0.0,4e-05,1,27.0
1545,-1e-05,-4e-05,-3e-05,-4e-05,-2e-05,-8e-05,0.0,4e-05,1,27.0
1546,-1e-05,-4e-05,-3e-05,-4e-05,-2e-05,-8e-05,0.0,4e-05,1,27.0
1547,-1e-05,-4e-05,-3e-05,-4e-05,-2e-05,-8e-05,0.0,4e-05,1,27.0
1548,-1e-05,-4e-05,-3e-05,-4e-05,-2e-05,-8e-05,0.0,4e-05,1,27.0
1549,-1e-05,-4e-05,-3e-05,-4e-05,-2e-05,-8e-05,0.0,4e-05,1,27.0
1550,-1e-05,-4e-05,-3e-05,-4e-05,-2e-05,-8e-05,0.0,4e-05,1,27.0
1551,0.0,0.0,2e-05,0.0,-2e-05,-4e-05,-2e-05,-2e-05,1,27.0
1552,0.0,0.0,2e-05,0.0,-2e-05,-4e-05,-2e-05,-2e-05,1,27.0
1553,0.0,0.0,2e-05,0.0,-2e-05,-4e-05,-2e-05,-2e-05,1,27.0
1554,0.0,0.0,2e-05,0.0,-2e-05,-4e-05,-2e-05,-2e-05,1,27.0
1555,0.0,0.0,2e-05,0.0,-2e-05,-4e-05,-2e-05,-2e-05,1,27.0
1556,0.0,0.0,2e-05,0.0,-2e-05,-4e-05,-2e-05,-2e-05,1,27.0
1557,0.0,0.0,2e-05,0.0,-2e-05,-4e-05,-2e-05,-2e-05,1,27.0
1558,0.0,0.0,2e-05,0.0,-2e-05,-4e-05,-2e-05,-2e-05,1,27.0
1559,0.0,0.0,2e-05,0.0,-2e-05,-4e-05,-2e-05,-2e-05,1,27.0
1560,0.0,0.0,2e-05,0.0,-2e-05,-4e-05,-2e-05,-2e-05,1,27.0
1561,0.0,0.0,2e-05,0.0,-2e-05,-4e-05,-2e-05,-2e-05,1,27.0
1562,0.0,0.0,2e-05,0.0,-2e-05,-4e-05,-2e-05,-2e-05,1,27.0
1563,0.0,0.0,2e-05,0.0,-2e-05,-4e-05,-2e-05,-2e-05,1,27.0
1564,0.0,0.0,2e-05,0.0,-2e-05,-4e-05,-2e-05,-2e-05,1,27.0
1565,0.0,-1e-05,0.0,7e-05,0.0,-1e-05,0.0,-1e-05,1,27.0
1566,0.0,-1e-05,0.0,-4e-05,0.0,4e-05,0.0,-1e-05,1,27.0
1567,1e-05,-2e-05,-0.0001,2e-05,2e-05,2e-05,-1e-05,-1e-05,1,27.0
1568,1e-05,-2e-05,-0.0001,2e-05,2e-05,2e-05,-1e-05,-1e-05,1,27.0
1569,1e-05,-2e-05,-0.0001,2e-05,2e-05,2e-05,-1e-05,-1e-05,1,27.0
1570,1e-05,-2e-05,-0.0001,2e-05,2e-05,2e-05,-1e-05,-1e-05,1,27.0
1571,1e-05,-2e-05,-0.0001,2e-05,2e-05,2e-05,-1e-05,-1e-05,1,27.0
1572,1e-05,-2e-05,-0.0001,2e-05,2e-05,2e-05,-1e-05,-1e-05,1,27.0
1573,1e-05,-2e-05,-0.0001,2e-05,2e-05,2e-05,-1e-05,-1e-05,1,27.0
1574,1e-05,-2e-05,-0.0001,2e-05,2e-05,2e-05,-1e-05,-1e-05,1,27.0
1575,1e-05,-2e-05,-0.0001,2e-05,2e-05,2e-05,-1e-05,-1e-05,1,27.0
1576,1e-05,-2e-05,-0.0001,2e-05,2e-05,2e-05,-1e-05,-1e-05,1,27.0
1577,1e-05,-2e-05,-0.0001,2e-05,2e-05,2e-05,-1e-05,-1e-05,1,27.0
1578,1e-05,-2e-05,-0.0001,2e-05,2e-05,2e-05,-1e-05,-1e-05,1,27.0
1579,1e-05,-2e-05,-0.0001,2e-05,2e-05,2e-05,-1e-05,-1e-05,1,27.0
1580,1e-05,-2e-05,-0.0001,2e-05,2e-05,2e-05,-1e-05,-1e-05,1,27.0
1581,1e-05,-2e-05,-0.0001,2e-05,2e-05,2e-05,-1e-05,-1e-05,1,27.0
1582,1e-05,-2e-05,-0.0001,2e-05,2e-05,2e-05,-1e-05,-1e-05,1,27.0
1583,1e-05,-2e-05,-0.0001,2e-05,2e-05,2e-05,-1e-05,-1e-05,1,27.0
1584,1e-05,-2e-05,-0.0001,2e-05,2e-05,2e-05,-1e-05,-1e-05,1,27.0
1585,1e-05,-2e-05,-0.0001,2e-05,2e-05,2e-05,-1e-05,-1e-05,1,27.0
1586,1e-05,-2e-05,-0.0001,2e-05,2e-05,2e-05,-1e-05,-1e-05,1,27.0
1589,-2e-05,0.0,-2e-05,3e-05,1e-05,4e-05,2e-05,-2e-05,1,27.0
1590,-2e-05,-1e-05,0.0,-8e-05,-3e-05,-1e-05,-2e-05,-1e-05,1,27.0
1591,-2e-05,-1e-05,0.0,-8e-05,-3e-05,-1e-05,-2e-05,-1e-05,1,27.0
1592,-2e-05,-1e-05,0.0,-8e-05,-3e-05,-1e-05,-2e-05,-1e-05,1,27.0
1593,-2e-05,-1e-05,0.0,-8e-05,-3e-05,-1e-05,-2e-05,-1e-05,1,27.0
1594,-2e-05,-1e-05,0.0,-8e-05,-3e-05,-1e-05,-2e-05,-1e-05,1,27.0
1595,-2e-05,-1e-05,0.0,-8e-05,-3e-05,-1e-05,-2e-05,-1e-05,1,27.0
1596,-2e-05,-1e-05,0.0,-8e-05,-3e-05,-1e-05,-2e-05,-1e-05,1,27.0
1597,-2e-05,-1e-05,0.0,-8e-05,-3e-05,-1e-05,-2e-05,-1e-05,1,27.0
1598,-2e-05,-1e-05,0.0,-8e-05,-3e-05,-1e-05,-2e-05,-1e-05,1,27.0
1599,-2e-05,-1e-05,0.0,-8e-05,-3e-05,-1e-05,-2e-05,-1e-05,1,27.0
1600,-2e-05,-1e-05,0.0,-8e-05,-3e-05,-1e-05,-2e-05,-1e-05,1,27.0
1601,-2e-05,-1e-05,0.0,-8e-05,-3e-05,-1e-05,-2e-05,-1e-05,1,27.0
1602,0.0,-1e-05,-1e-05,-2e-05,1e-05,-1e-05,-1e-05,-1e-05,1,27.0
1603,0.0,-1e-05,-1e-05,-2e-05,1e-05,-1e-05,-1e-05,-1e-05,1,27.0
1604,0.0,-1e-05,-1e-05,-2e-05,1e-05,-1e-05,-1e-05,-1e-05,1,27.0
1605,0.0,-1e-05,-1e-05,-2e-05,1e-05,-1e-05,-1e-05,-1e-05,1,27.0
1606,0.0,-1e-05,-1e-05,-2e-05,1e-05,-1e-05,-1e-05,-1e-05,1,27.0
1607,0.0,-1e-05,-1e-05,-2e-05,1e-05,-1e-05,-1e-05,-1e-05,1,27.0
1608,0.0,-1e-05,-1e-05,-2e-05,1e-05,-1e-05,-1e-05,-1e-05,1,27.0
1609,0.0,-1e-05,-1e-05,-2e-05,1e-05,-1e-05,-1e-05,-1e-05,1,27.0
1610,-2e-05,4e-05,0.0,-6e-05,-1e-05,0.0,0.0,-3e-05,1,27.0
1611,-2e-05,-4e-05,1e-05,6e-05,0.0,0.0,-1e-05,-1e-05,1,27.0
1612,-2e-05,-4e-05,1e-05,6e-05,0.0,0.0,-1e-05,-1e-05,1,27.0
1613,-2e-05,-4e-05,1e-05,6e-05,0.0,0.0,-1e-05,-1e-05,1,27.0
1614,-2e-05,-4e-05,1e-05,6e-05,0.0,0.0,-1e-05,-1e-05,1,27.0
1615,-2e-05,-4e-05,1e-05,6e-05,0.0,0.0,-1e-05,-1e-05,1,27.0
1616,-2e-05,-4e-05,1e-05,6e-05,0.0,0.0,-1e-05,-1e-05,1,27.0
1617,-2e-05,-4e-05,1e-05,6e-05,0.0,0.0,-1e-05,-1e-05,1,27.0
1618,-2e-05,-4e-05,1e-05,6e-05,0.0,0.0,-1e-05,-1e-05,1,27.0
1619,-2e-05,-4e-05,1e-05,6e-05,0.0,0.0,-1e-05,-1e-05,1,27.0
1620,-2e-05,-4e-05,1e-05,6e-05,0.0,0.0,-1e-05,-1e-05,1,27.0
1621,-2e-05,-4e-05,1e-05,6e-05,0.0,0.0,-1e-05,-1e-05,1,27.0
1622,-2e-05,-4e-05,1e-05,6e-05,0.0,0.0,-1e-05,-1e-05,1,27.0
1623,-2e-05,-4e-05,1e-05,6e-05,0.0,0.0,-1e-05,-1e-05,1,27.0
1624,-2e-05,-4e-05,1e-05,6e-05,0.0,0.0,-1e-05,-1e-05,1,27.0
1625,-1e-05,-3e-05,-2e-05,-6e-05,-1e-05,-2e-05,-2e-05,-1e-05,1,27.0
1626,0.0,-2e-05,-1e-05,-2e-05,-4e-05,0.0,-2e-05,1e-05,1,27.0
1627,1e-05,2e-05,0.0,0.0,-2e-05,-3e-05,-1e-05,0.0,1,27.0
1628,1e-05,2e-05,0.0,0.0,-2e-05,-3e-05,-1e-05,0.0,1,27.0
1629,1e-05,2e-05,0.0,0.0,-2e-05,-3e-05,-1e-05,0.0,1,27.0
1630,1e-05,2e-05,0.0,0.0,-2e-05,-3e-05,-1e-05,0.0,1,27.0
1631,1e-05,2e-05,0.0,0.0,-2e-05,-3e-05,-1e-05,0.0,1,27.0
1632,1e-05,2e-05,0.0,0.0,-2e-05,-3e-05,-1e-05,0.0,1,27.0
1633,1e-05,2e-05,0.0,0.0,-2e-05,-3e-05,-1e-05,0.0,1,27.0
1634,1e-05,2e-05,0.0,0.0,-2e-05,-3e-05,-1e-05,0.0,1,27.0
1635,1e-05,2e-05,0.0,0.0,-2e-05,-3e-05,-1e-05,0.0,1,27.0
1636,1e-05,2e-05,0.0,0.0,-2e-05,-3e-05,-1e-05,0.0,1,27.0
1638,1e-05,2e-05,0.0,0.0,-2e-05,-3e-05,-1e-05,0.0,1,27.0
1639,1e-05,2e-05,0.0,0.0,-2e-05,-3e-05,-1e-05,0.0,1,27.0
1640,1e-05,2e-05,0.0,0.0,-2e-05,-3e-05,-1e-05,0.0,1,27.0
1641,1e-05,2e-05,0.0,0.0,-2e-05,-3e-05,-1e-05,0.0,1,27.0
1642,1e-05,2e-05,0.0,0.0,-2e-05,-3e-05,-1e-05,0.0,1,27.0
1643,1e-05,2e-05,0.0,0.0,-2e-05,-3e-05,-1e-05,0.0,1,27.0
1644,1e-05,2e-05,0.0,0.0,-2e-05,-3e-05,-1e-05,0.0,1,27.0
1645,1e-05,2e-05,0.0,0.0,-2e-05,-3e-05,-1e-05,0.0,1,27.0
1646,1e-05,2e-05,0.0,0.0,-2e-05,-3e-05,-1e-05,0.0,1,27.0
1647,1e-05,2e-05,0.0,0.0,-2e-05,-3e-05,-1e-05,0.0,1,27.0
1648,-3e-05,-2e-05,-1e-05,-2e-05,0.0,-5e-05,-3e-05,-2e-05,1,27.0
1649,-2e-05,-1e-05,-3e-05,-2e-05,2e-05,-1e-05,0.0,-2e-05,1,27.0
1650,0.0,-3e-05,-4e-05,-5e-05,-1e-05,-2e-05,-1e-05,-1e-05,1,27.0
1651,0.0,-3e-05,-4e-05,-5e-05,-1e-05,-2e-05,-1e-05,-1e-05,1,27.0
1652,0.0,-3e-05,-4e-05,-5e-05,-1e-05,-2e-05,-1e-05,-1e-05,1,27.0
1653,0.0,-3e-05,-4e-05,-5e-05,-1e-05,-2e-05,-1e-05,-1e-05,1,27.0
1654,0.0,-3e-05,-4e-05,-5e-05,-1e-05,-2e-05,-1e-05,-1e-05,1,27.0
1655,0.0,-3e-05,-4e-05,-5e-05,-1e-05,-2e-05,-1e-05,-1e-05,1,27.0
1656,0.0,-3e-05,-4e-05,-5e-05,-1e-05,-2e-05,-1e-05,-1e-05,1,27.0
1657,0.0,-3e-05,-4e-05,-5e-05,-1e-05,-2e-05,-1e-05,-1e-05,1,27.0
1658,0.0,-3e-05,-4e-05,-5e-05,-1e-05,-2e-05,-1e-05,-1e-05,1,27.0
1659,0.0,-3e-05,-4e-05,-5e-05,-1e-05,-2e-05,-1e-05,-1e-05,1,27.0
1660,0.0,-3e-05,-4e-05,-5e-05,-1e-05,-2e-05,-1e-05,-1e-05,1,27.0
1661,0.0,-3e-05,-4e-05,-5e-05,-1e-05,-2e-05,-1e-05,-1e-05,1,27.0
1662,0.0,-3e-05,-4e-05,-5e-05,-1e-05,-2e-05,-1e-05,-1e-05,1,27.0
1663,0.0,-3e-05,-4e-05,-5e-05,-1e-05,-2e-05,-1e-05,-1e-05,1,27.0
1664,0.0,-3e-05,-4e-05,-5e-05,-1e-05,-2e-05,-1e-05,-1e-05,1,27.0
1665,0.0,-3e-05,-4e-05,-5e-05,-1e-05,-2e-05,-1e-05,-1e-05,1,27.0
1666,0.0,-3e-05,-4e-05,-5e-05,-1e-05,-2e-05,-1e-05,-1e-05,1,27.0
1667,0.0,-3e-05,-4e-05,-5e-05,-1e-05,-2e-05,-1e-05,-1e-05,1,27.0
1668,0.0,-3e-05,-4e-05,-5e-05,-1e-05,-2e-05,-1e-05,-1e-05,1,27.0
1669,0.0,-3e-05,-4e-05,-5e-05,-1e-05,-2e-05,-1e-05,-1e-05,1,27.0
1670,0.0,0.0,-2e-05,-3e-05,-2e-05,-1e-05,-2e-05,0.0,1,27.0
1671,0.0,0.0,-2e-05,-3e-05,-2e-05,-1e-05,-2e-05,0.0,1,27.0
1672,-1e-05,-1e-05,3e-05,-3e-05,0.0,-1e-05,-1e-05,0.0,1,27.0
1673,-1e-05,-1e-05,3e-05,-3e-05,0.0,-1e-05,-1e-05,0.0,1,27.0
1674,-1e-05,-1e-05,3e-05,-3e-05,0.0,-1e-05,-1e-05,0.0,1,27.0
1675,-1e-05,-1e-05,3e-05,-3e-05,0.0,-1e-05,-1e-05,0.0,1,27.0
1676,-1e-05,-1e-05,3e-05,-3e-05,0.0,-1e-05,-1e-05,0.0,1,27.0
1677,-1e-05,-1e-05,3e-05,-3e-05,0.0,-1e-05,-1e-05,0.0,1,27.0
1678,-1e-05,-1e-05,3e-05,-3e-05,0.0,-1e-05,-1e-05,0.0,1,27.0
1679,-1e-05,-1e-05,3e-05,-3e-05,0.0,-1e-05,-1e-05,0.0,1,27.0
1680,-1e-05,-1e-05,3e-05,-3e-05,0.0,-1e-05,-1e-05,0.0,1,27.0
1681,-1e-05,-1e-05,3e-05,-3e-05,0.0,-1e-05,-1e-05,0.0,1,27.0
1682,-1e-05,-1e-05,3e-05,-3e-05,0.0,-1e-05,-1e-05,0.0,1,27.0
1683,-1e-05,-1e-05,3e-05,-3e-05,0.0,-1e-05,-1e-05,0.0,1,27.0
1684,-1e-05,-1e-05,3e-05,-3e-05,0.0,-1e-05,-1e-05,0.0,1,27.0
1685,-2e-05,-3e-05,-1e-05,-3e-05,-3e-05,1e-05,-1e-05,-1e-05,1,27.0
1687,-2e-05,2e-05,7e-05,4e-05,3e-05,0.0,-2e-05,-2e-05,1,27.0
1690,-2e-05,2e-05,7e-05,4e-05,3e-05,0.0,-2e-05,-2e-05,1,27.0
1691,-2e-05,2e-05,7e-05,4e-05,3e-05,0.0,-2e-05,-2e-05,1,27.0
1692,-2e-05,2e-05,7e-05,4e-05,3e-05,0.0,-2e-05,-2e-05,1,27.0
1693,-2e-05,2e-05,7e-05,4e-05,3e-05,0.0,-2e-05,-2e-05,1,27.0
1694,-2e-05,2e-05,7e-05,4e-05,3e-05,0.0,-2e-05,-2e-05,1,27.0
1695,-2e-05,2e-05,7e-05,4e-05,3e-05,0.0,-2e-05,-2e-05,1,27.0
1696,-2e-05,2e-05,7e-05,4e-05,3e-05,0.0,-2e-05,-2e-05,1,27.0
1697,-2e-05,2e-05,7e-05,4e-05,3e-05,0.0,-2e-05,-2e-05,1,27.0
1698,-2e-05,2e-05,7e-05,4e-05,3e-05,0.0,-2e-05,-2e-05,1,27.0
1699,-2e-05,2e-05,7e-05,4e-05,3e-05,0.0,-2e-05,-2e-05,1,27.0
1700,-2e-05,2e-05,7e-05,4e-05,3e-05,0.0,-2e-05,-2e-05,1,27.0
1701,-2e-05,2e-05,7e-05,4e-05,3e-05,0.0,-2e-05,-2e-05,1,27.0
1702,-2e-05,2e-05,7e-05,4e-05,3e-05,0.0,-2e-05,-2e-05,1,27.0
1703,-2e-05,2e-05,7e-05,4e-05,3e-05,0.0,-2e-05,-2e-05,1,27.0
1704,-2e-05,2e-05,7e-05,4e-05,3e-05,0.0,-2e-05,-2e-05,1,27.0
1705,-2e-05,2e-05,7e-05,4e-05,3e-05,0.0,-2e-05,-2e-05,1,27.0
1706,-2e-05,2e-05,7e-05,4e-05,3e-05,0.0,-2e-05,-2e-05,1,27.0
1707,-2e-05,2e-05,7e-05,4e-05,3e-05,0.0,-2e-05,-2e-05,1,27.0
1708,0.0,-3e-05,-8e-05,2e-05,0.0,-1e-05,-1e-05,0.0,1,27.0
1709,0.0,-3e-05,-8e-05,2e-05,0.0,-1e-05,-1e-05,0.0,1,27.0
1710,0.0,-2e-05,-2e-05,1e-05,-2e-05,-6e-05,-1e-05,1e-05,1,27.0
1711,0.0,-2e-05,-2e-05,1e-05,-2e-05,-6e-05,-1e-05,1e-05,1,27.0
1712,0.0,-2e-05,-2e-05,1e-05,-2e-05,-6e-05,-1e-05,1e-05,1,27.0
1713,0.0,-2e-05,-2e-05,1e-05,-2e-05,-6e-05,-1e-05,1e-05,1,27.0
1714,0.0,-2e-05,-2e-05,1e-05,-2e-05,-6e-05,-1e-05,1e-05,1,27.0
1715,0.0,-2e-05,-2e-05,1e-05,-2e-05,-6e-05,-1e-05,1e-05,1,27.0
1716,0.0,-2e-05,-2e-05,1e-05,-2e-05,-6e-05,-1e-05,1e-05,1,27.0
1717,0.0,-2e-05,-2e-05,1e-05,-2e-05,-6e-05,-1e-05,1e-05,1,27.0
1718,0.0,-2e-05,-2e-05,1e-05,-2e-05,-6e-05,-1e-05,1e-05,1,27.0
1719,0.0,-2e-05,-2e-05,1e-05,-2e-05,-6e-05,-1e-05,1e-05,1,27.0
1720,0.0,-2e-05,-2e-05,1e-05,-2e-05,-6e-05,-1e-05,1e-05,1,27.0
1721,0.0,-2e-05,-2e-05,1e-05,-2e-05,-6e-05,-1e-05,1e-05,1,27.0
1722,0.0,-2e-05,-2e-05,1e-05,-2e-05,-6e-05,-1e-05,1e-05,1,27.0
1723,0.0,-2e-05,-2e-05,1e-05,-2e-05,-6e-05,-1e-05,1e-05,1,27.0
1724,0.0,-2e-05,-2e-05,1e-05,-2e-05,-6e-05,-1e-05,1e-05,1,27.0
1725,0.0,-2e-05,-2e-05,1e-05,-2e-05,-6e-05,-1e-05,1e-05,1,27.0
1726,0.0,-2e-05,-2e-05,1e-05,-2e-05,-6e-05,-1e-05,1e-05,1,27.0
1727,0.0,-2e-05,-2e-05,1e-05,-2e-05,-6e-05,-1e-05,1e-05,1,27.0
1728,0.0,-2e-05,-2e-05,1e-05,-2e-05,-6e-05,-1e-05,1e-05,1,27.0
1729,0.0,-2e-05,-2e-05,1e-05,-2e-05,-6e-05,-1e-05,1e-05,1,27.0
1730,1e-05,-1e-05,1e-05,1e-05,-1e-05,-2e-05,-2e-05,0.0,1,27.0
1731,1e-05,-1e-05,1e-05,1e-05,-1e-05,-2e-05,-2e-05,0.0,1,27.0
1732,-2e-05,0.0,0.0,0.0,3e-05,1e-05,-1e-05,-1e-05,1,27.0
1733,-2e-05,0.0,0.0,0.0,3e-05,1e-05,-1e-05,-1e-05,1,27.0
1734,-2e-05,0.0,0.0,0.0,3e-05,1e-05,-1e-05,-1e-05,1,27.0
1735,-2e-05,0.0,0.0,0.0,3e-05,1e-05,-1e-05,-1e-05,1,27.0
1736,-2e-05,0.0,0.0,0.0,3e-05,1e-05,-1e-05,-1e-05,1,27.0
1738,-2e-05,0.0,0.0,0.0,3e-05,1e-05,-1e-05,-1e-05,1,27.0
1739,-2e-05,0.0,0.0,0.0,3e-05,1e-05,-1e-05,-1e-05,1,27.0
1740,-2e-05,0.0,0.0,0.0,3e-05,1e-05,-1e-05,-1e-05,1,27.0
1741,-2e-05,0.0,0.0,0.0,3e-05,1e-05,-1e-05,-1e-05,1,27.0
1742,-2e-05,0.0,0.0,0.0,3e-05,1e-05,-1e-05,-1e-05,1,27.0
1743,-2e-05,0.0,0.0,0.0,3e-05,1e-05,-1e-05,-1e-05,1,27.0
1744,-2e-05,0.0,0.0,0.0,3e-05,1e-05,-1e-05,-1e-05,1,27.0
1745,-2e-05,0.0,0.0,0.0,3e-05,1e-05,-1e-05,-1e-05,1,27.0
1746,-2e-05,0.0,0.0,0.0,3e-05,1e-05,-1e-05,-1e-05,1,27.0
1747,-2e-05,-2e-05,-1e-05,-5e-05,-2e-05,1e-05,-1e-05,0.0,1,27.0
1748,0.0,1e-05,0.0,2e-05,-4e-05,-6e-05,-2e-05,0.0,1,27.0
1749,0.0,1e-05,0.0,2e-05,-4e-05,-6e-05,-2e-05,0.0,1,27.0
1750,0.0,1e-05,0.0,2e-05,-4e-05,-6e-05,-2e-05,0.0,1,27.0
1751,0.0,1e-05,0.0,2e-05,-4e-05,-6e-05,-2e-05,0.0,1,27.0
1752,0.0,1e-05,0.0,2e-05,-4e-05,-6e-05,-2e-05,0.0,1,27.0
1753,0.0,1e-05,0.0,2e-05,-4e-05,-6e-05,-2e-05,0.0,1,27.0
1754,0.0,1e-05,0.0,2e-05,-4e-05,-6e-05,-2e-05,0.0,1,27.0
1755,0.0,1e-05,0.0,2e-05,-4e-05,-6e-05,-2e-05,0.0,1,27.0
1756,0.0,1e-05,0.0,2e-05,-4e-05,-6e-05,-2e-05,0.0,1,27.0
1757,0.0,1e-05,0.0,2e-05,-4e-05,-6e-05,-2e-05,0.0,1,27.0
1758,0.0,1e-05,0.0,2e-05,-4e-05,-6e-05,-2e-05,0.0,1,27.0
1759,0.0,1e-05,0.0,2e-05,-4e-05,-6e-05,-2e-05,0.0,1,27.0
1760,0.0,1e-05,0.0,2e-05,-4e-05,-6e-05,-2e-05,0.0,1,27.0
1761,0.0,1e-05,0.0,2e-05,-4e-05,-6e-05,-2e-05,0.0,1,27.0
1762,0.0,1e-05,0.0,2e-05,-4e-05,-6e-05,-2e-05,0.0,1,27.0
1763,0.0,1e-05,0.0,2e-05,-4e-05,-6e-05,-2e-05,0.0,1,27.0
1764,0.0,1e-05,0.0,2e-05,-4e-05,-6e-05,-2e-05,0.0,1,27.0
1765,0.0,1e-05,0.0,2e-05,-4e-05,-6e-05,-2e-05,0.0,1,27.0
1766,0.0,1e-05,0.0,2e-05,-4e-05,-6e-05,-2e-05,0.0,1,27.0
1767,0.0,1e-05,0.0,2e-05,-4e-05,-6e-05,-2e-05,0.0,1,27.0
1768,0.0,0.0,-4e-05,-6e-05,-1e-05,1e-05,1e-05,-4e-05,1,27.0
1769,0.0,-2e-05,1e-05,-1e-05,3e-05,-1e-05,-1e-05,-2e-05,1,27.0
1770,-1e-05,0.0,-7e-05,-3e-05,-1e-05,0.0,1e-05,-3e-05,1,27.0
1771,-1e-05,0.0,-7e-05,-3e-05,-1e-05,0.0,1e-05,-3e-05,1,27.0
1772,-1e-05,0.0,-7e-05,-3e-05,-1e-05,0.0,1e-05,-3e-05,1,27.0
1773,-1e-05,0.0,-7e-05,-3e-05,-1e-05,0.0,1e-05,-3e-05,1,27.0
1774,-1e-05,0.0,-7e-05,-3e-05,-1e-05,0.0,1e-05,-3e-05,1,27.0
1775,-1e-05,0.0,-7e-05,-3e-05,-1e-05,0.0,1e-05,-3e-05,1,27.0
1776,-1e-05,0.0,-7e-05,-3e-05,-1e-05,0.0,1e-05,-3e-05,1,27.0
1777,-1e-05,0.0,-7e-05,-3e-05,-1e-05,0.0,1e-05,-3e-05,1,27.0
1778,-1e-05,0.0,-7e-05,-3e-05,-1e-05,0.0,1e-05,-3e-05,1,27.0
1779,-1e-05,0.0,-7e-05,-3e-05,-1e-05,0.0,1e-05,-3e-05,1,27.0
1780,-1e-05,0.0,-7e-05,-3e-05,-1e-05,0.0,1e-05,-3e-05,1,27.0
1781,-1e-05,0.0,-7e-05,-3e-05,-1e-05,0.0,1e-05,-3e-05,1,27.0
1782,-1e-05,0.0,-7e-05,-3e-05,-1e-05,0.0,1e-05,-3e-05,1,27.0
1783,-1e-05,0.0,-7e-05,-3e-05,-1e-05,0.0,1e-05,-3e-05,1,27.0
1784,-1e-05,0.0,-7e-05,-3e-05,-1e-05,0.0,1e-05,-3e-05,1,27.0
1785,-1e-05,0.0,-7e-05,-3e-05,-1e-05,0.0,1e-05,-3e-05,1,27.0
1786,-1e-05,0.0,-7e-05,-3e-05,-1e-05,0.0,1e-05,-3e-05,1,27.0
1788,-1e-05,0.0,-7e-05,-3e-05,-1e-05,0.0,1e-05,-3e-05,1,27.0
1790,-2e-05,1e-05,3e-05,-1e-05,-2e-05,-2e-05,-3e-05,0.0,1,27.0
1791,-2e-05,1e-05,3e-05,-1e-05,-2e-05,-2e-05,-3e-05,0.0,1,27.0
1792,1e-05,0.0,1e-05,0.0,-1e-05,0.0,-2e-05,1e-05,1,27.0
1793,1e-05,0.0,1e-05,0.0,-1e-05,0.0,-2e-05,1e-05,1,27.0
1794,1e-05,0.0,1e-05,0.0,-1e-05,0.0,-2e-05,1e-05,1,27.0
1795,1e-05,0.0,1e-05,0.0,-1e-05,0.0,-2e-05,1e-05,1,27.0
1796,1e-05,0.0,1e-05,0.0,-1e-05,0.0,-2e-05,1e-05,1,27.0
1797,1e-05,0.0,1e-05,0.0,-1e-05,0.0,-2e-05,1e-05,1,27.0
1798,1e-05,0.0,1e-05,0.0,-1e-05,0.0,-2e-05,1e-05,1,27.0
1799,1e-05,0.0,1e-05,0.0,-1e-05,0.0,-2e-05,1e-05,1,27.0
1800,1e-05,0.0,1e-05,0.0,-1e-05,0.0,-2e-05,1e-05,1,27.0
1801,1e-05,0.0,1e-05,0.0,-1e-05,0.0,-2e-05,1e-05,1,27.0
1802,1e-05,0.0,1e-05,0.0,-1e-05,0.0,-2e-05,1e-05,1,27.0
1803,1e-05,0.0,1e-05,0.0,-1e-05,0.0,-2e-05,1e-05,1,27.0
1804,1e-05,0.0,1e-05,0.0,-1e-05,0.0,-2e-05,1e-05,1,27.0
1805,0.0,-1e-05,0.0,1e-05,-2e-05,-3e-05,-2e-05,1e-05,1,27.0
1806,0.0,-1e-05,0.0,1e-05,-2e-05,-3e-05,-2e-05,1e-05,1,27.0
1807,0.0,-1e-05,0.0,1e-05,-2e-05,-3e-05,-2e-05,1e-05,1,27.0
1808,-1e-05,0.0,1e-05,-1e-05,2e-05,2e-05,-1e-05,0.0,1,27.0
1809,-1e-05,0.0,1e-05,-1e-05,2e-05,2e-05,-1e-05,0.0,1,27.0
1810,-1e-05,0.0,1e-05,-1e-05,2e-05,2e-05,-1e-05,0.0,1,27.0
1811,-1e-05,0.0,1e-05,-1e-05,2e-05,2e-05,-1e-05,0.0,1,27.0
1812,-1e-05,0.0,1e-05,-1e-05,2e-05,2e-05,-1e-05,0.0,1,27.0
1813,-1e-05,0.0,1e-05,-1e-05,2e-05,2e-05,-1e-05,0.0,1,27.0
1814,-1e-05,0.0,1e-05,-1e-05,2e-05,2e-05,-1e-05,0.0,1,27.0
1815,-1e-05,0.0,1e-05,-1e-05,2e-05,2e-05,-1e-05,0.0,1,27.0
1816,-1e-05,0.0,1e-05,-1e-05,2e-05,2e-05,-1e-05,0.0,1,27.0
1817,-1e-05,0.0,1e-05,-1e-05,2e-05,2e-05,-1e-05,0.0,1,27.0
1818,-1e-05,0.0,1e-05,-1e-05,2e-05,2e-05,-1e-05,0.0,1,27.0
1819,-1e-05,0.0,1e-05,-1e-05,2e-05,2e-05,-1e-05,0.0,1,27.0
1820,-1e-05,0.0,1e-05,-1e-05,2e-05,2e-05,-1e-05,0.0,1,27.0
1821,-1e-05,0.0,1e-05,-1e-05,2e-05,2e-05,-1e-05,0.0,1,27.0
1822,-1e-05,0.0,1e-05,-1e-05,2e-05,2e-05,-1e-05,0.0,1,27.0
1823,-1e-05,0.0,1e-05,-1e-05,2e-05,2e-05,-1e-05,0.0,1,27.0
1824,-1e-05,0.0,1e-05,-1e-05,2e-05,2e-05,-1e-05,0.0,1,27.0
1825,-1e-05,0.0,1e-05,-1e-05,2e-05,2e-05,-1e-05,0.0,1,27.0
1826,-1e-05,0.0,1e-05,-1e-05,2e-05,2e-05,-1e-05,0.0,1,27.0
1827,-1e-05,0.0,1e-05,-1e-05,2e-05,2e-05,-1e-05,0.0,1,27.0
1828,0.0,-2e-05,-1e-05,-1e-05,-2e-05,-1e-05,0.0,-1e-05,1,27.0
1829,0.0,-2e-05,-1e-05,-1e-05,-2e-05,-1e-05,0.0,-1e-05,1,27.0
1830,-1e-05,1e-05,-4e-05,-2e-05,-1e-05,1e-05,0.0,-1e-05,1,27.0
1831,-1e-05,1e-05,-4e-05,-2e-05,-1e-05,1e-05,0.0,-1e-05,1,27.0
1832,-1e-05,1e-05,-4e-05,-2e-05,-1e-05,1e-05,0.0,-1e-05,1,27.0
1833,-1e-05,1e-05,-4e-05,-2e-05,-1e-05,1e-05,0.0,-1e-05,1,27.0
1834,-1e-05,1e-05,-4e-05,-2e-05,-1e-05,1e-05,0.0,-1e-05,1,27.0
1835,-1e-05,1e-05,-4e-05,-2e-05,-1e-05,1e-05,0.0,-1e-05,1,27.0
1836,-1e-05,1e-05,-4e-05,-2e-05,-1e-05,1e-05,0.0,-1e-05,1,27.0
1838,-1e-05,1e-05,-4e-05,-2e-05,-1e-05,1e-05,0.0,-1e-05,1,27.0
1839,-1e-05,1e-05,-4e-05,-2e-05,-1e-05,1e-05,0.0,-1e-05,1,27.0
1840,-1e-05,1e-05,-4e-05,-2e-05,-1e-05,1e-05,0.0,-1e-05,1,27.0
1841,-1e-05,1e-05,-4e-05,-2e-05,-1e-05,1e-05,0.0,-1e-05,1,27.0
1842,-1e-05,1e-05,-4e-05,-2e-05,-1e-05,1e-05,0.0,-1e-05,1,27.0
1843,-1e-05,1e-05,-4e-05,-2e-05,-1e-05,1e-05,0.0,-1e-05,1,27.0
1844,-1e-05,1e-05,-4e-05,-2e-05,-1e-05,1e-05,0.0,-1e-05,1,27.0
1845,-1e-05,1e-05,-4e-05,-2e-05,-1e-05,1e-05,0.0,-1e-05,1,27.0
1846,-1e-05,1e-05,-4e-05,-2e-05,-1e-05,1e-05,0.0,-1e-05,1,27.0
1847,-1e-05,1e-05,-4e-05,-2e-05,-1e-05,1e-05,0.0,-1e-05,1,27.0
1848,-1e-05,1e-05,-4e-05,-2e-05,-1e-05,1e-05,0.0,-1e-05,1,27.0
1849,-1e-05,1e-05,-4e-05,-2e-05,-1e-05,1e-05,0.0,-1e-05,1,27.0
1850,-3e-05,-1e-05,8e-05,-5e-05,2e-05,-1e-05,-1e-05,0.0,1,27.0
1851,-2e-05,1e-05,3e-05,-2e-05,-2e-05,-1e-05,-2e-05,-1e-05,1,27.0
1852,-1e-05,-5e-05,2e-05,-1e-05,-2e-05,-4e-05,-2e-05,1e-05,1,27.0
1853,-1e-05,-5e-05,2e-05,-1e-05,-2e-05,-4e-05,-2e-05,1e-05,1,27.0
1854,-1e-05,-5e-05,2e-05,-1e-05,-2e-05,-4e-05,-2e-05,1e-05,1,27.0
1855,-1e-05,-5e-05,2e-05,-1e-05,-2e-05,-4e-05,-2e-05,1e-05,1,27.0
1856,-1e-05,-5e-05,2e-05,-1e-05,-2e-05,-4e-05,-2e-05,1e-05,1,27.0
1857,-1e-05,-5e-05,2e-05,-1e-05,-2e-05,-4e-05,-2e-05,1e-05,1,27.0
1858,-1e-05,-5e-05,2e-05,-1e-05,-2e-05,-4e-05,-2e-05,1e-05,1,27.0
1859,-1e-05,-5e-05,2e-05,-1e-05,-2e-05,-4e-05,-2e-05,1e-05,1,27.0
1860,-1e-05,-5e-05,2e-05,-1e-05,-2e-05,-4e-05,-2e-05,1e-05,1,27.0
1861,-1e-05,-5e-05,2e-05,-1e-05,-2e-05,-4e-05,-2e-05,1e-05,1,27.0
1862,-1e-05,-5e-05,2e-05,-1e-05,-2e-05,-4e-05,-2e-05,1e-05,1,27.0
1863,-1e-05,-5e-05,2e-05,-1e-05,-2e-05,-4e-05,-2e-05,1e-05,1,27.0
1864,-1e-05,-5e-05,2e-05,-1e-05,-2e-05,-4e-05,-2e-05,1e-05,1,27.0
1865,-2e-05,-2e-05,4e-05,3e-05,-3e-05,-3e-05,-1e-05,-2e-05,1,27.0
1866,-2e-05,-2e-05,4e-05,3e-05,-3e-05,-3e-05,-1e-05,-2e-05,1,27.0
1867,-2e-05,-2e-05,4e-05,3e-05,-3e-05,-3e-05,-1e-05,-2e-05,1,27.0
1868,-2e-05,-2e-05,4e-05,3e-05,-3e-05,-3e-05,-1e-05,-2e-05,1,27.0
1869,-2e-05,-2e-05,4e-05,3e-05,-3e-05,-3e-05,-1e-05,-2e-05,1,27.0
1870,-2e-05,-2e-05,4e-05,3e-05,-3e-05,-3e-05,-1e-05,-2e-05,1,27.0
1871,-2e-05,-2e-05,4e-05,3e-05,-3e-05,-3e-05,-1e-05,-2e-05,1,27.0
1872,-2e-05,-2e-05,4e-05,3e-05,-3e-05,-3e-05,-1e-05,-2e-05,1,27.0
1873,-2e-05,-2e-05,4e-05,3e-05,-3e-05,-3e-05,-1e-05,-2e-05,1,27.0
1874,-2e-05,-2e-05,4e-05,3e-05,-3e-05,-3e-05,-1e-05,-2e-05,1,27.0
1875,-2e-05,-2e-05,4e-05,3e-05,-3e-05,-3e-05,-1e-05,-2e-05,1,27.0
1876,-2e-05,-2e-05,4e-05,3e-05,-3e-05,-3e-05,-1e-05,-2e-05,1,27.0
1877,-2e-05,-2e-05,4e-05,3e-05,-3e-05,-3e-05,-1e-05,-2e-05,1,27.0
1878,-2e-05,-2e-05,4e-05,3e-05,-3e-05,-3e-05,-1e-05,-2e-05,1,27.0
1879,0.0,0.0,0.0,-2e-05,0.0,-2e-05,-1e-05,0.0,1,27.0
1880,0.0,-2e-05,-5e-05,-1e-05,-5e-05,-2e-05,1e-05,-1e-05,1,27.0
1881,0.0,-2e-05,-5e-05,-1e-05,-5e-05,-2e-05,1e-05,-1e-05,1,27.0
1882,0.0,-2e-05,-5e-05,-1e-05,-5e-05,-2e-05,1e-05,-1e-05,1,27.0
1883,0.0,-2e-05,-5e-05,-1e-05,-5e-05,-2e-05,1e-05,-1e-05,1,27.0
1884,0.0,-2e-05,-5e-05,-1e-05,-5e-05,-2e-05,1e-05,-1e-05,1,27.0
1885,0.0,-2e-05,-5e-05,-1e-05,-5e-05,-2e-05,1e-05,-1e-05,1,27.0
1886,0.0,-2e-05,-5e-05,-1e-05,-5e-05,-2e-05,1e-05,-1e-05,1,27.0
1889,0.0,0.0,2e-05,3e-05,3e-05,-1e-05,-1e-05,0.0,1,27.0
1890,-1e-05,0.0,3e-05,-2e-05,1e-05,1e-05,0.0,-1e-05,1,27.0
1891,-1e-05,0.0,3e-05,-2e-05,1e-05,1e-05,0.0,-1e-05,1,27.0
1892,-1e-05,0.0,3e-05,-2e-05,1e-05,1e-05,0.0,-1e-05,1,27.0
1893,-1e-05,0.0,3e-05,-2e-05,1e-05,1e-05,0.0,-1e-05,1,27.0
1894,-1e-05,0.0,3e-05,-2e-05,1e-05,1e-05,0.0,-1e-05,1,27.0
1895,-1e-05,0.0,3e-05,-2e-05,1e-05,1e-05,0.0,-1e-05,1,27.0
1896,-1e-05,0.0,3e-05,-2e-05,1e-05,1e-05,0.0,-1e-05,1,27.0
1897,-1e-05,0.0,3e-05,-2e-05,1e-05,1e-05,0.0,-1e-05,1,27.0
1898,-1e-05,0.0,3e-05,-2e-05,1e-05,1e-05,0.0,-1e-05,1,27.0
1899,-1e-05,0.0,3e-05,-2e-05,1e-05,1e-05,0.0,-1e-05,1,27.0
1900,-1e-05,0.0,3e-05,-2e-05,1e-05,1e-05,0.0,-1e-05,1,27.0
1901,-1e-05,0.0,3e-05,-2e-05,1e-05,1e-05,0.0,-1e-05,1,27.0
1902,-1e-05,0.0,3e-05,-2e-05,1e-05,1e-05,0.0,-1e-05,1,27.0
1903,-1e-05,0.0,3e-05,-2e-05,1e-05,1e-05,0.0,-1e-05,1,27.0
1904,-1e-05,0.0,3e-05,-2e-05,1e-05,1e-05,0.0,-1e-05,1,27.0
1905,-1e-05,0.0,3e-05,-2e-05,1e-05,1e-05,0.0,-1e-05,1,27.0
1906,-1e-05,0.0,3e-05,-2e-05,1e-05,1e-05,0.0,-1e-05,1,27.0
1907,-1e-05,0.0,3e-05,-2e-05,1e-05,1e-05,0.0,-1e-05,1,27.0
1908,-1e-05,0.0,3e-05,-2e-05,1e-05,1e-05,0.0,-1e-05,1,27.0
1909,-1e-05,0.0,3e-05,-2e-05,1e-05,1e-05,0.0,-1e-05,1,27.0
1910,-2e-05,-2e-05,0.0,-6e-05,0.0,-6e-05,0.0,1e-05,1,27.0
1911,0.0,0.0,1e-05,-1e-05,-3e-05,0.0,-2e-05,1e-05,1,27.0
1912,-1e-05,0.0,0.0,-2e-05,-2e-05,-1e-05,0.0,2e-05,1,27.0
1913,-1e-05,0.0,0.0,-2e-05,-2e-05,-1e-05,0.0,2e-05,1,27.0
1914,-1e-05,0.0,0.0,-2e-05,-2e-05,-1e-05,0.0,2e-05,1,27.0
1915,-1e-05,0.0,0.0,-2e-05,-2e-05,-1e-05,0.0,2e-05,1,27.0
1916,-1e-05,0.0,0.0,-2e-05,-2e-05,-1e-05,0.0,2e-05,1,27.0
1917,-1e-05,0.0,0.0,-2e-05,-2e-05,-1e-05,0.0,2e-05,1,27.0
1918,-1e-05,0.0,0.0,-2e-05,-2e-05,-1e-05,0.0,2e-05,1,27.0
1919,-1e-05,0.0,0.0,-2e-05,-2e-05,-1e-05,0.0,2e-05,1,27.0
1920,-1e-05,0.0,0.0,-2e-05,-2e-05,-1e-05,0.0,2e-05,1,27.0
1921,-1e-05,0.0,0.0,-2e-05,-2e-05,-1e-05,0.0,2e-05,1,27.0
1922,-1e-05,0.0,0.0,-2e-05,-2e-05,-1e-05,0.0,2e-05,1,27.0
1923,-1e-05,0.0,0.0,-2e-05,-2e-05,-1e-05,0.0,2e-05,1,27.0
1924,-1e-05,0.0,0.0,-2e-05,-2e-05,-1e-05,0.0,2e-05,1,27.0
1925,1e-05,0.0,3e-05,0.0,0.0,0.0,0.0,-2e-05,1,27.0
1926,1e-05,0.0,3e-05,0.0,0.0,0.0,0.0,-2e-05,1,27.0
1927,1e-05,0.0,3e-05,0.0,0.0,0.0,0.0,-2e-05,1,27.0
1928,1e-05,0.0,3e-05,0.0,0.0,0.0,0.0,-2e-05,1,27.0
1929,1e-05,0.0,3e-05,0.0,0.0,0.0,0.0,-2e-05,1,27.0
1930,1e-05,0.0,3e-05,0.0,0.0,0.0,0.0,-2e-05,1,27.0
1931,-2e-05,1e-05,0.0,4e-05,0.0,-2e-05,-1e-05,-1e-05,1,27.0
1932,0.0,-1e-05,-5e-05,-9e-05,-2e-05,0.0,0.0,-4e-05,1,27.0
1933,0.0,-1e-05,-5e-05,-9e-05,-2e-05,0.0,0.0,-4e-05,1,27.0
1934,0.0,-1e-05,-5e-05,-9e-05,-2e-05,0.0,0.0,-4e-05,1,27.0
1935,0.0,-1e-05,-5e-05,-9e-05,-2e-05,0.0,0.0,-4e-05,1,27.0
1936,0.0,-1e-05,-5e-05,-9e-05,-2e-05,0.0,0.0,-4e-05,1,27.0
1938,0.0,-1e-05,-5e-05,-9e-05,-2e-05,0.0,0.0,-4e-05,1,27.0
1940,0.0,-1e-05,-5e-05,-9e-05,-2e-05,0.0,0.0,-4e-05,1,27.0
1941,0.0,-1e-05,-5e-05,-9e-05,-2e-05,0.0,0.0,-4e-05,1,27.0
1942,0.0,-1e-05,-5e-05,-9e-05,-2e-05,0.0,0.0,-4e-05,1,27.0
1943,0.0,-1e-05,-5e-05,-9e-05,-2e-05,0.0,0.0,-4e-05,1,27.0
1944,0.0,-1e-05,-5e-05,-9e-05,-2e-05,0.0,0.0,-4e-05,1,27.0
1945,0.0,-1e-05,-5e-05,-9e-05,-2e-05,0.0,0.0,-4e-05,1,27.0
1946,0.0,-1e-05,-5e-05,-9e-05,-2e-05,0.0,0.0,-4e-05,1,27.0
1947,0.0,-1e-05,-5e-05,-9e-05,-2e-05,0.0,0.0,-4e-05,1,27.0
1948,-1e-05,-3e-05,-2e-05,0.0,1e-05,-1e-05,0.0,-2e-05,1,27.0
1949,0.0,-2e-05,-2e-05,-1e-05,0.0,0.0,1e-05,-3e-05,1,27.0
1950,0.0,1e-05,0.0,4e-05,0.0,0.0,-2e-05,-2e-05,1,27.0
1951,0.0,1e-05,0.0,4e-05,0.0,0.0,-2e-05,-2e-05,1,27.0
1952,0.0,1e-05,0.0,4e-05,0.0,0.0,-2e-05,-2e-05,1,27.0
1953,0.0,1e-05,0.0,4e-05,0.0,0.0,-2e-05,-2e-05,1,27.0
1954,0.0,1e-05,0.0,4e-05,0.0,0.0,-2e-05,-2e-05,1,27.0
1955,0.0,1e-05,0.0,4e-05,0.0,0.0,-2e-05,-2e-05,1,27.0
1956,0.0,1e-05,0.0,4e-05,0.0,0.0,-2e-05,-2e-05,1,27.0
1957,0.0,1e-05,0.0,4e-05,0.0,0.0,-2e-05,-2e-05,1,27.0
1958,0.0,1e-05,0.0,4e-05,0.0,0.0,-2e-05,-2e-05,1,27.0
1959,0.0,1e-05,0.0,4e-05,0.0,0.0,-2e-05,-2e-05,1,27.0
1960,0.0,1e-05,0.0,4e-05,0.0,0.0,-2e-05,-2e-05,1,27.0
1961,0.0,1e-05,0.0,4e-05,0.0,0.0,-2e-05,-2e-05,1,27.0
1962,0.0,1e-05,0.0,4e-05,0.0,0.0,-2e-05,-2e-05,1,27.0
1963,0.0,1e-05,0.0,4e-05,0.0,0.0,-2e-05,-2e-05,1,27.0
1964,0.0,1e-05,0.0,4e-05,0.0,0.0,-2e-05,-2e-05,1,27.0
1965,0.0,1e-05,0.0,4e-05,0.0,0.0,-2e-05,-2e-05,1,27.0
1966,0.0,1e-05,0.0,4e-05,0.0,0.0,-2e-05,-2e-05,1,27.0
1967,0.0,1e-05,0.0,4e-05,0.0,0.0,-2e-05,-2e-05,1,27.0
1968,0.0,1e-05,0.0,4e-05,0.0,0.0,-2e-05,-2e-05,1,27.0
1969,0.0,1e-05,0.0,4e-05,0.0,0.0,-2e-05,-2e-05,1,27.0
1970,-2e-05,-4e-05,-2e-05,-2e-05,0.0,1e-05,-2e-05,0.0,1,27.0
1971,-2e-05,-4e-05,-2e-05,-2e-05,0.0,1e-05,-2e-05,0.0,1,27.0
1972,-2e-05,1e-05,7e-05,4e-05,-4e-05,-6e-05,-2e-05,-2e-05,1,27.0
1973,-2e-05,1e-05,7e-05,4e-05,-4e-05,-6e-05,-2e-05,-2e-05,1,27.0
1974,-2e-05,1e-05,7e-05,4e-05,-4e-05,-6e-05,-2e-05,-2e-05,1,27.0
1975,-2e-05,1e-05,7e-05,4e-05,-4e-05,-6e-05,-2e-05,-2e-05,1,27.0
1976,-2e-05,1e-05,7e-05,4e-05,-4e-05,-6e-05,-2e-05,-2e-05,1,27.0
1977,-2e-05,1e-05,7e-05,4e-05,-4e-05,-6e-05,-2e-05,-2e-05,1,27.0
1978,-2e-05,1e-05,7e-05,4e-05,-4e-05,-6e-05,-2e-05,-2e-05,1,27.0
1979,-2e-05,1e-05,7e-05,4e-05,-4e-05,-6e-05,-2e-05,-2e-05,1,27.0
1980,-2e-05,1e-05,7e-05,4e-05,-4e-05,-6e-05,-2e-05,-2e-05,1,27.0
1981,-2e-05,1e-05,7e-05,4e-05,-4e-05,-6e-05,-2e-05,-2e-05,1,27.0
1982,-2e-05,1e-05,7e-05,4e-05,-4e-05,-6e-05,-2e-05,-2e-05,1,27.0
1983,-2e-05,1e-05,7e-05,4e-05,-4e-05,-6e-05,-2e-05,-2e-05,1,27.0
1984,-2e-05,1e-05,7e-05,4e-05,-4e-05,-6e-05,-2e-05,-2e-05,1,27.0
1985,-1e-05,-3e-05,-3e-05,0.0,1e-05,1e-05,-1e-05,0.0,1,27.0
1986,-1e-05,-3e-05,-3e-05,0.0,1e-05,1e-05,-1e-05,0.0,1,27.0
1988,-1e-05,-3e-05,-3e-05,0.0,1e-05,1e-05,-1e-05,0.0,1,27.0
1990,-1e-05,-3e-05,-3e-05,0.0,1e-05,1e-05,-1e-05,0.0,1,27.0
1991,-1e-05,-3e-05,-3e-05,0.0,1e-05,1e-05,-1e-05,0.0,1,27.0
1992,0.0,1e-05,-5e-05,0.0,-1e-05,-1e-05,-1e-05,-2e-05,1,27.0
1993,0.0,1e-05,-5e-05,0.0,-1e-05,-1e-05,-1e-05,-2e-05,1,27.0
1994,0.0,1e-05,-5e-05,0.0,-1e-05,-1e-05,-1e-05,-2e-05,1,27.0
1995,0.0,1e-05,-5e-05,0.0,-1e-05,-1e-05,-1e-05,-2e-05,1,27.0
1996,0.0,1e-05,-5e-05,0.0,-1e-05,-1e-05,-1e-05,-2e-05,1,27.0
1997,0.0,1e-05,-5e-05,0.0,-1e-05,-1e-05,-1e-05,-2e-05,1,27.0
1998,0.0,1e-05,-5e-05,0.0,-1e-05,-1e-05,-1e-05,-2e-05,1,27.0
1999,0.0,1e-05,-5e-05,0.0,-1e-05,-1e-05,-1e-05,-2e-05,1,27.0
2000,0.0,1e-05,-5e-05,0.0,-1e-05,-1e-05,-1e-05,-2e-05,1,27.0
2001,0.0,1e-05,-5e-05,0.0,-1e-05,-1e-05,-1e-05,-2e-05,1,27.0
2002,0.0,1e-05,-5e-05,0.0,-1e-05,-1e-05,-1e-05,-2e-05,1,27.0
2003,0.0,1e-05,-5e-05,0.0,-1e-05,-1e-05,-1e-05,-2e-05,1,27.0
2004,0.0,1e-05,-5e-05,0.0,-1e-05,-1e-05,-1e-05,-2e-05,1,27.0
2005,0.0,1e-05,-5e-05,0.0,-1e-05,-1e-05,-1e-05,-2e-05,1,27.0
2006,0.0,1e-05,-5e-05,0.0,-1e-05,-1e-05,-1e-05,-2e-05,1,27.0
2007,0.0,1e-05,-5e-05,0.0,-1e-05,-1e-05,-1e-05,-2e-05,1,27.0
2008,-2e-05,1e-05,2e-05,1e-05,-2e-05,0.0,-2e-05,-2e-05,1,27.0
2009,-1e-05,-3e-05,0.0,-3e-05,-1e-05,-6e-05,-1e-05,0.0,1,27.0
2010,-1e-05,-3e-05,0.0,-3e-05,-1e-05,-6e-05,-1e-05,0.0,1,27.0
2011,-1e-05,-3e-05,0.0,-3e-05,-1e-05,-6e-05,-1e-05,0.0,1,27.0
2012,-1e-05,-3e-05,0.0,-3e-05,-1e-05,-6e-05,-1e-05,0.0,1,27.0
2013,-1e-05,-3e-05,0.0,-3e-05,-1e-05,-6e-05,-1e-05,0.0,1,27.0
2014,-1e-05,-3e-05,0.0,-3e-05,-1e-05,-6e-05,-1e-05,0.0,1,27.0
2015,-1e-05,-3e-05,0.0,-3e-05,-1e-05,-6e-05,-1e-05,0.0,1,27.0
2016,-1e-05,-3e-05,0.0,-3e-05,-1e-05,-6e-05,-1e-05,0.0,1,27.0
2017,-1e-05,-3e-05,0.0,-3e-05,-1e-05,-6e-05,-1e-05,0.0,1,27.0
2018,-1e-05,-3e-05,0.0,-3e-05,-1e-05,-6e-05,-1e-05,0.0,1,27.0
2019,-1e-05,-3e-05,0.0,-3e-05,-1e-05,-6e-05,-1e-05,0.0,1,27.0
2020,-1e-05,-3e-05,0.0,-3e-05,-1e-05,-6e-05,-1e-05,0.0,1,27.0
2021,-1e-05,-3e-05,0.0,-3e-05,-1e-05,-6e-05,-1e-05,0.0,1,27.0
2022,-1e-05,-3e-05,0.0,-3e-05,-1e-05,-6e-05,-1e-05,0.0,1,27.0
2023,-1e-05,-3e-05,0.0,-3e-05,-1e-05,-6e-05,-1e-05,0.0,1,27.0
2024,-1e-05,-3e-05,0.0,-3e-05,-1e-05,-6e-05,-1e-05,0.0,1,27.0
2025,-1e-05,-3e-05,0.0,-3e-05,-1e-05,-6e-05,-1e-05,0.0,1,27.0
2026,-1e-05,-3e-05,0.0,-3e-05,-1e-05,-6e-05,-1e-05,0.0,1,27.0
2027,-1e-05,-3e-05,0.0,-3e-05,-1e-05,-6e-05,-1e-05,0.0,1,27.0
2028,-1e-05,-3e-05,0.0,-3e-05,-1e-05,-6e-05,-1e-05,0.0,1,27.0
2029,-1e-05,-3e-05,0.0,-3e-05,-1e-05,-6e-05,-1e-05,0.0,1,27.0
2030,-1e-05,-3e-05,-5e-05,-1e-05,1e-05,-1e-05,0.0,-1e-05,1,27.0
2031,-2e-05,-2e-05,1e-05,-5e-05,-3e-05,-1e-05,-1e-05,-1e-05,1,27.0
2032,-2e-05,-1e-05,0.0,4e-05,1e-05,-1e-05,0.0,-2e-05,1,27.0
2033,-2e-05,-1e-05,0.0,4e-05,1e-05,-1e-05,0.0,-2e-05,1,27.0
2034,-2e-05,-1e-05,0.0,4e-05,1e-05,-1e-05,0.0,-2e-05,1,27.0
2035,-2e-05,-1e-05,0.0,4e-05,1e-05,-1e-05,0.0,-2e-05,1,27.0
2036,-2e-05,-1e-05,0.0,4e-05,1e-05,-1e-05,0.0,-2e-05,1,27.0
2038,-2e-05,-1e-05,0.0,4e-05,1e-05,-1e-05,0.0,-2e-05,1,27.0
2040,-2e-05,-1e-05,0.0,4e-05,1e-05,-1e-05,0.0,-2e-05,1,27.0
2041,-2e-05,-1e-05,0.0,4e-05,1e-05,-1e-05,0.0,-2e-05,1,27.0
2042,-2e-05,-1e-05,0.0,4e-05,1e-05,-1e-05,0.0,-2e-05,1,27.0
2043,-2e-05,-1e-05,0.0,4e-05,1e-05,-1e-05,0.0,-2e-05,1,27.0
2044,-2e-05,-1e-05,0.0,4e-05,1e-05,-1e-05,0.0,-2e-05,1,27.0
2045,0.0,-2e-05,0.0,-3e-05,-2e-05,-1e-05,-1e-05,0.0,1,27.0
2046,0.0,-2e-05,0.0,-3e-05,-2e-05,-1e-05,-1e-05,0.0,1,27.0
2047,0.0,-2e-05,0.0,-3e-05,-2e-05,-1e-05,-1e-05,0.0,1,27.0
2048,0.0,-2e-05,0.0,-3e-05,-2e-05,-1e-05,-1e-05,0.0,1,27.0
2049,0.0,-2e-05,0.0,-3e-05,-2e-05,-1e-05,-1e-05,0.0,1,27.0
2050,0.0,-2e-05,0.0,-3e-05,-2e-05,-1e-05,-1e-05,0.0,1,27.0
2051,0.0,-2e-05,0.0,-3e-05,-2e-05,-1e-05,-1e-05,0.0,1,27.0
2052,-2e-05,0.0,-1e-05,-2e-05,0.0,1e-05,0.0,1e-05,1,27.0
2053,-2e-05,0.0,-1e-05,-2e-05,0.0,1e-05,0.0,1e-05,1,27.0
2054,-2e-05,0.0,-1e-05,-2e-05,0.0,1e-05,0.0,1e-05,1,27.0
2055,-2e-05,0.0,-1e-05,-2e-05,0.0,1e-05,0.0,1e-05,1,27.0
2056,-2e-05,0.0,-1e-05,-2e-05,0.0,1e-05,0.0,1e-05,1,27.0
2057,-2e-05,0.0,-1e-05,-2e-05,0.0,1e-05,0.0,1e-05,1,27.0
2058,-2e-05,0.0,-1e-05,-2e-05,0.0,1e-05,0.0,1e-05,1,27.0
2059,-2e-05,0.0,-1e-05,-2e-05,0.0,1e-05,0.0,1e-05,1,27.0
2060,-2e-05,0.0,-1e-05,-2e-05,0.0,1e-05,0.0,1e-05,1,27.0
2061,-2e-05,0.0,-1e-05,-2e-05,0.0,1e-05,0.0,1e-05,1,27.0
2062,-2e-05,0.0,-1e-05,-2e-05,0.0,1e-05,0.0,1e-05,1,27.0
2063,-2e-05,0.0,-1e-05,-2e-05,0.0,1e-05,0.0,1e-05,1,27.0
2064,-2e-05,0.0,-1e-05,-2e-05,0.0,1e-05,0.0,1e-05,1,27.0
2065,-2e-05,0.0,-1e-05,-2e-05,0.0,1e-05,0.0,1e-05,1,27.0
2066,-2e-05,0.0,-1e-05,-2e-05,0.0,1e-05,0.0,1e-05,1,27.0
2067,-2e-05,0.0,-1e-05,-2e-05,0.0,1e-05,0.0,1e-05,1,27.0
2068,0.0,-1e-05,-1e-05,-1e-05,3e-05,1e-05,0.0,1e-05,1,27.0
2069,0.0,0.0,-4e-05,-1e-05,-2e-05,-2e-05,1e-05,-2e-05,1,27.0
2070,0.0,-1e-05,0.0,2e-05,0.0,2e-05,-3e-05,-1e-05,1,27.0
2071,0.0,-1e-05,0.0,2e-05,0.0,2e-05,-3e-05,-1e-05,1,27.0
2072,0.0,-1e-05,0.0,2e-05,0.0,2e-05,-3e-05,-1e-05,1,27.0
2073,0.0,-1e-05,0.0,2e-05,0.0,2e-05,-3e-05,-1e-05,1,27.0
2074,0.0,-1e-05,0.0,2e-05,0.0,2e-05,-3e-05,-1e-05,1,27.0
2075,0.0,-1e-05,0.0,2e-05,0.0,2e-05,-3e-05,-1e-05,1,27.0
2076,0.0,-1e-05,0.0,2e-05,0.0,2e-05,-3e-05,-1e-05,1,27.0
2077,0.0,-1e-05,0.0,2e-05,0.0,2e-05,-3e-05,-1e-05,1,27.0
2078,0.0,-1e-05,0.0,2e-05,0.0,2e-05,-3e-05,-1e-05,1,27.0
2079,0.0,-1e-05,0.0,2e-05,0.0,2e-05,-3e-05,-1e-05,1,27.0
2080,0.0,-1e-05,0.0,2e-05,0.0,2e-05,-3e-05,-1e-05,1,27.0
2081,0.0,-1e-05,0.0,2e-05,0.0,2e-05,-3e-05,-1e-05,1,27.0
2082,0.0,-1e-05,0.0,2e-05,0.0,2e-05,-3e-05,-1e-05,1,27.0
2083,0.0,-1e-05,0.0,2e-05,0.0,2e-05,-3e-05,-1e-05,1,27.0
2084,0.0,-1e-05,0.0,2e-05,0.0,2e-05,-3e-05,-1e-05,1,27.0
2085,0.0,-1e-05,0.0,2e-05,0.0,2e-05,-3e-05,-1e-05,1,27.0
2086,0.0,-1e-05,0.0,2e-05,0.0,2e-05,-3e-05,-1e-05,1,27.0
2089,0.0,-1e-05,0.0,2e-05,0.0,2e-05,-3e-05,-1e-05,1,27.0
2090,0.0,-1e-05,0.0,2e-05,0.0,2e-05,-3e-05,-1e-05,1,27.0
2091,0.0,1e-05,2e-05,-4e-05,-3e-05,1e-05,2e-05,-1e-05,1,27.0
2092,-1e-05,-4e-05,-4e-05,-6e-05,0.0,1e-05,-3e-05,-2e-05,1,27.0
2093,-1e-05,-4e-05,-4e-05,-6e-05,0.0,1e-05,-3e-05,-2e-05,1,27.0
2094,-1e-05,-4e-05,-4e-05,-6e-05,0.0,1e-05,-3e-05,-2e-05,1,27.0
2095,-1e-05,-4e-05,-4e-05,-6e-05,0.0,1e-05,-3e-05,-2e-05,1,27.0
2096,-1e-05,-4e-05,-4e-05,-6e-05,0.0,1e-05,-3e-05,-2e-05,1,27.0
2097,-1e-05,-4e-05,-4e-05,-6e-05,0.0,1e-05,-3e-05,-2e-05,1,27.0
2098,-1e-05,-4e-05,-4e-05,-6e-05,0.0,1e-05,-3e-05,-2e-05,1,27.0
2099,-1e-05,-4e-05,-4e-05,-6e-05,0.0,1e-05,-3e-05,-2e-05,1,27.0
2100,-1e-05,-4e-05,-4e-05,-6e-05,0.0,1e-05,-3e-05,-2e-05,1,27.0
2101,-1e-05,-4e-05,-4e-05,-6e-05,0.0,1e-05,-3e-05,-2e-05,1,27.0
2102,-1e-05,-4e-05,-4e-05,-6e-05,0.0,1e-05,-3e-05,-2e-05,1,27.0
2103,-1e-05,-4e-05,-4e-05,-6e-05,0.0,1e-05,-3e-05,-2e-05,1,27.0
2104,-1e-05,-4e-05,-4e-05,-6e-05,0.0,1e-05,-3e-05,-2e-05,1,27.0
2105,-3e-05,0.0,0.0,0.0,-5e-05,-4e-05,-2e-05,-1e-05,1,27.0
2106,-3e-05,0.0,0.0,0.0,-5e-05,-4e-05,-2e-05,-1e-05,1,27.0
2107,-3e-05,0.0,0.0,0.0,-5e-05,-4e-05,-2e-05,-1e-05,1,27.0
2108,-3e-05,0.0,0.0,0.0,-5e-05,-4e-05,-2e-05,-1e-05,1,27.0
2109,-3e-05,0.0,0.0,0.0,-5e-05,-4e-05,-2e-05,-1e-05,1,27.0
2110,-3e-05,0.0,0.0,0.0,-5e-05,-4e-05,-2e-05,-1e-05,1,27.0
2111,-3e-05,0.0,0.0,0.0,-5e-05,-4e-05,-2e-05,-1e-05,1,27.0
2112,0.0,-3e-05,2e-05,-3e-05,-1e-05,0.0,0.0,1e-05,1,27.0
2113,0.0,-3e-05,2e-05,-3e-05,-1e-05,0.0,0.0,1e-05,1,27.0
2114,0.0,-3e-05,2e-05,-3e-05,-1e-05,0.0,0.0,1e-05,1,27.0
2115,0.0,-3e-05,2e-05,-3e-05,-1e-05,0.0,0.0,1e-05,1,27.0
2116,0.0,-3e-05,2e-05,-3e-05,-1e-05,0.0,0.0,1e-05,1,27.0
2117,0.0,-3e-05,2e-05,-3e-05,-1e-05,0.0,0.0,1e-05,1,27.0
2118,0.0,-3e-05,2e-05,-3e-05,-1e-05,0.0,0.0,1e-05,1,27.0
2119,0.0,-3e-05,2e-05,-3e-05,-1e-05,0.0,0.0,1e-05,1,27.0
2120,0.0,-3e-05,2e-05,-3e-05,-1e-05,0.0,0.0,1e-05,1,27.0
2121,0.0,-3e-05,2e-05,-3e-05,-1e-05,0.0,0.0,1e-05,1,27.0
2122,0.0,-3e-05,2e-05,-3e-05,-1e-05,0.0,0.0,1e-05,1,27.0
2123,0.0,-3e-05,2e-05,-3e-05,-1e-05,0.0,0.0,1e-05,1,27.0
2124,0.0,-3e-05,2e-05,-3e-05,-1e-05,0.0,0.0,1e-05,1,27.0
2125,0.0,-3e-05,2e-05,-3e-05,-1e-05,0.0,0.0,1e-05,1,27.0
2126,0.0,-3e-05,2e-05,-3e-05,-1e-05,0.0,0.0,1e-05,1,27.0
2127,0.0,-3e-05,2e-05,-3e-05,-1e-05,0.0,0.0,1e-05,1,27.0
2128,-2e-05,-4e-05,4e-05,-4e-05,-3e-05,-3e-05,-4e-05,-2e-05,1,27.0
2129,0.0,-3e-05,-0.00013,-1e-05,-3e-05,-2e-05,1e-05,-3e-05,1,27.0
2130,-2e-05,-3e-05,-1e-05,3e-05,-2e-05,1e-05,0.0,0.0,1,27.0
2131,-2e-05,-3e-05,-1e-05,3e-05,-2e-05,1e-05,0.0,0.0,1,27.0
2132,-2e-05,-3e-05,-1e-05,3e-05,-2e-05,1e-05,0.0,0.0,1,27.0
2133,-2e-05,-3e-05,-1e-05,3e-05,-2e-05,1e-05,0.0,0.0,1,27.0
2134,-2e-05,-3e-05,-1e-05,3e-05,-2e-05,1e-05,0.0,0.0,1,27.0
2135,-2e-05,-3e-05,-1e-05,3e-05,-2e-05,1e-05,0.0,0.0,1,27.0
2136,-2e-05,-3e-05,-1e-05,3e-05,-2e-05,1e-05,0.0,0.0,1,27.0
2139,-2e-05,-3e-05,-1e-05,3e-05,-2e-05,1e-05,0.0,0.0,1,27.0
2140,-2e-05,-3e-05,-1e-05,3e-05,-2e-05,1e-05,0.0,0.0,1,27.0
2141,-2e-05,-3e-05,-1e-05,3e-05,-2e-05,1e-05,0.0,0.0,1,27.0
2142,-2e-05,-3e-05,-1e-05,3e-05,-2e-05,1e-05,0.0,0.0,1,27.0
2143,-2e-05,-3e-05,-1e-05,3e-05,-2e-05,1e-05,0.0,0.0,1,27.0
2144,-2e-05,-3e-05,-1e-05,3e-05,-2e-05,1e-05,0.0,0.0,1,27.0
2145,-2e-05,-3e-05,-1e-05,3e-05,-2e-05,1e-05,0.0,0.0,1,27.0
2146,-2e-05,-3e-05,-1e-05,3e-05,-2e-05,1e-05,0.0,0.0,1,27.0
2147,-2e-05,-3e-05,-1e-05,3e-05,-2e-05,1e-05,0.0,0.0,1,27.0
2148,-2e-05,-3e-05,-1e-05,3e-05,-2e-05,1e-05,0.0,0.0,1,27.0
2149,-2e-05,-3e-05,-1e-05,3e-05,-2e-05,1e-05,0.0,0.0,1,27.0
2150,-2e-05,-3e-05,-1e-05,3e-05,-2e-05,1e-05,0.0,0.0,1,27.0
2151,-2e-05,-3e-05,-1e-05,3e-05,-2e-05,1e-05,0.0,0.0,1,27.0
2152,-2e-05,-3e-05,-1e-05,3e-05,-2e-05,1e-05,0.0,0.0,1,27.0
2153,-2e-05,-3e-05,-1e-05,3e-05,-2e-05,1e-05,0.0,0.0,1,27.0
2154,-2e-05,-3e-05,-1e-05,3e-05,-2e-05,1e-05,0.0,0.0,1,27.0
2155,-2e-05,-3e-05,-1e-05,3e-05,-2e-05,1e-05,0.0,0.0,1,27.0
2156,-2e-05,-3e-05,-1e-05,3e-05,-2e-05,1e-05,0.0,0.0,1,27.0
2157,-2e-05,-3e-05,-1e-05,3e-05,-2e-05,1e-05,0.0,0.0,1,27.0
2158,-2e-05,-3e-05,-1e-05,3e-05,-2e-05,1e-05,0.0,0.0,1,27.0
2159,-2e-05,-3e-05,-1e-05,3e-05,-2e-05,1e-05,0.0,0.0,1,27.0
2160,-2e-05,-3e-05,-1e-05,3e-05,-2e-05,1e-05,0.0,0.0,1,27.0
2161,-2e-05,-3e-05,-1e-05,3e-05,-2e-05,1e-05,0.0,0.0,1,27.0
2162,-2e-05,-3e-05,-1e-05,3e-05,-2e-05,1e-05,0.0,0.0,1,27.0
2163,-2e-05,-3e-05,-1e-05,3e-05,-2e-05,1e-05,0.0,0.0,1,27.0
2164,-2e-05,-3e-05,-1e-05,3e-05,-2e-05,1e-05,0.0,0.0,1,27.0
2165,-2e-05,-3e-05,-1e-05,3e-05,-2e-05,1e-05,0.0,0.0,1,27.0
2166,1e-05,0.0,1e-05,3e-05,-1e-05,-2e-05,0.0,-2e-05,1,27.0
2167,1e-05,0.0,1e-05,3e-05,-1e-05,-2e-05,0.0,-2e-05,1,27.0
2168,-2e-05,-2e-05,-2e-05,0.0,-1e-05,0.0,-2e-05,0.0,1,27.0
2169,-2e-05,-2e-05,-2e-05,0.0,-1e-05,0.0,-2e-05,0.0,1,27.0
2170,-2e-05,-2e-05,-2e-05,0.0,-1e-05,0.0,-2e-05,0.0,1,27.0
2171,-2e-05,-2e-05,-2e-05,0.0,-1e-05,0.0,-2e-05,0.0,1,27.0
2172,-2e-05,-2e-05,-2e-05,0.0,-1e-05,0.0,-2e-05,0.0,1,27.0
2173,0.0,-1e-05,-1e-05,-2e-05,1e-05,1e-05,0.0,-1e-05,1,27.0
2174,0.0,-1e-05,-1e-05,-2e-05,1e-05,1e-05,0.0,-1e-05,1,27.0
2175,0.0,-1e-05,-1e-05,-2e-05,1e-05,1e-05,0.0,-1e-05,1,27.0
2176,0.0,-1e-05,-1e-05,-2e-05,1e-05,1e-05,0.0,-1e-05,1,27.0
2177,0.0,-1e-05,-1e-05,-2e-05,1e-05,1e-05,0.0,-1e-05,1,27.0
2178,0.0,-1e-05,-1e-05,-2e-05,1e-05,1e-05,0.0,-1e-05,1,27.0
2179,0.0,-1e-05,-1e-05,-2e-05,1e-05,1e-05,0.0,-1e-05,1,27.0
2180,0.0,-1e-05,-1e-05,-2e-05,1e-05,1e-05,0.0,-1e-05,1,27.0
2181,0.0,-1e-05,-1e-05,-2e-05,1e-05,1e-05,0.0,-1e-05,1,27.0
2182,0.0,-1e-05,-1e-05,-2e-05,1e-05,1e-05,0.0,-1e-05,1,27.0
2183,0.0,-1e-05,-1e-05,-2e-05,1e-05,1e-05,0.0,-1e-05,1,27.0
2184,0.0,-1e-05,-1e-05,-2e-05,1e-05,1e-05,0.0,-1e-05,1,27.0
2185,0.0,-1e-05,-1e-05,-2e-05,1e-05,1e-05,0.0,-1e-05,1,27.0
2186,0.0,-1e-05,-1e-05,-2e-05,1e-05,1e-05,0.0,-1e-05,1,27.0
2189,-1e-05,0.0,-4e-05,2e-05,2e-05,-8e-05,-1e-05,-4e-05,1,27.0
2190,-1e-05,-2e-05,-1e-05,-3e-05,-1e-05,-3e-05,-3e-05,0.0,1,27.0
2191,-1e-05,-2e-05,-1e-05,-3e-05,-1e-05,-3e-05,-3e-05,0.0,1,27.0
2192,-1e-05,-2e-05,-1e-05,-3e-05,-1e-05,-3e-05,-3e-05,0.0,1,27.0
2193,-1e-05,-2e-05,-1e-05,-3e-05,-1e-05,-3e-05,-3e-05,0.0,1,27.0
2194,-1e-05,-2e-05,-1e-05,-3e-05,-1e-05,-3e-05,-3e-05,0.0,1,27.0
2195,-1e-05,-2e-05,-1e-05,-3e-05,-1e-05,-3e-05,-3e-05,0.0,1,27.0
2196,-1e-05,-2e-05,-1e-05,-3e-05,-1e-05,-3e-05,-3e-05,0.0,1,27.0
2197,-1e-05,-2e-05,-1e-05,-3e-05,-1e-05,-3e-05,-3e-05,0.0,1,27.0
3975,-0.00013,-2e-05,4e-05,0.0003,6e-05,7e-05,-0.00039,-5e-05,2,27.0
3976,-0.00013,-2e-05,4e-05,0.0003,6e-05,7e-05,-0.00039,-5e-05,2,27.0
3977,-0.00013,-2e-05,4e-05,0.0003,6e-05,7e-05,-0.00039,-5e-05,2,27.0
3978,-0.00013,-2e-05,4e-05,0.0003,6e-05,7e-05,-0.00039,-5e-05,2,27.0
3979,-0.00013,-2e-05,4e-05,0.0003,6e-05,7e-05,-0.00039,-5e-05,2,27.0
3980,-0.00013,-2e-05,4e-05,0.0003,6e-05,7e-05,-0.00039,-5e-05,2,27.0
3981,-0.00013,-2e-05,4e-05,0.0003,6e-05,7e-05,-0.00039,-5e-05,2,27.0
3982,-0.00013,-2e-05,4e-05,0.0003,6e-05,7e-05,-0.00039,-5e-05,2,27.0
3983,-0.00013,-2e-05,4e-05,0.0003,6e-05,7e-05,-0.00039,-5e-05,2,27.0
3984,-0.00013,-2e-05,4e-05,0.0003,6e-05,7e-05,-0.00039,-5e-05,2,27.0
3985,-0.00013,-2e-05,4e-05,0.0003,6e-05,7e-05,-0.00039,-5e-05,2,27.0
3986,-0.00013,-2e-05,4e-05,0.0003,6e-05,7e-05,-0.00039,-5e-05,2,27.0
3989,-0.00013,-2e-05,4e-05,0.0003,6e-05,7e-05,-0.00039,-5e-05,2,27.0
3990,-0.00013,-2e-05,4e-05,0.0003,6e-05,7e-05,-0.00039,-5e-05,2,27.0
3991,-0.00013,-2e-05,4e-05,0.0003,6e-05,7e-05,-0.00039,-5e-05,2,27.0
3992,-0.00013,-2e-05,4e-05,0.0003,6e-05,7e-05,-0.00039,-5e-05,2,27.0
3993,-0.00013,-2e-05,4e-05,0.0003,6e-05,7e-05,-0.00039,-5e-05,2,27.0
3994,-0.00013,-2e-05,4e-05,0.0003,6e-05,7e-05,-0.00039,-5e-05,2,27.0
3995,-0.00013,-2e-05,4e-05,0.0003,6e-05,7e-05,-0.00039,-5e-05,2,27.0
3996,-0.00013,-2e-05,4e-05,0.0003,6e-05,7e-05,-0.00039,-5e-05,2,27.0
3997,-0.00013,-2e-05,4e-05,0.0003,6e-05,7e-05,-0.00039,-5e-05,2,27.0
3998,-0.00013,-2e-05,4e-05,0.0003,6e-05,7e-05,-0.00039,-5e-05,2,27.0
3999,-0.00013,-2e-05,4e-05,0.0003,6e-05,7e-05,-0.00039,-5e-05,2,27.0
4000,-0.00013,-2e-05,4e-05,0.0003,6e-05,7e-05,-0.00039,-5e-05,2,27.0
4001,-0.00013,-2e-05,4e-05,0.0003,6e-05,7e-05,-0.00039,-5e-05,2,27.0
4002,-0.00013,-2e-05,4e-05,0.0003,6e-05,7e-05,-0.00039,-5e-05,2,27.0
4003,-0.00013,-2e-05,4e-05,0.0003,6e-05,7e-05,-0.00039,-5e-05,2,27.0
4004,-0.00013,-2e-05,4e-05,0.0003,6e-05,7e-05,-0.00039,-5e-05,2,27.0
4005,2e-05,3e-05,0.00014,4e-05,-8e-05,0.00018,0.00035,2e-05,2,27.0
4006,-5e-05,7e-05,0.00025,0.00037,7e-05,0.0004,1e-05,2e-05,2,27.0
4007,-5e-05,7e-05,0.00025,0.00037,7e-05,0.0004,1e-05,2e-05,2,27.0
4008,-5e-05,7e-05,0.00025,0.00037,7e-05,0.0004,1e-05,2e-05,2,27.0
4009,-5e-05,7e-05,0.00025,0.00037,7e-05,0.0004,1e-05,2e-05,2,27.0
4010,-5e-05,7e-05,0.00025,0.00037,7e-05,0.0004,1e-05,2e-05,2,27.0
4011,-5e-05,7e-05,0.00025,0.00037,7e-05,0.0004,1e-05,2e-05,2,27.0
4012,-5e-05,7e-05,0.00025,0.00037,7e-05,0.0004,1e-05,2e-05,2,27.0
4013,-5e-05,7e-05,0.00025,0.00037,7e-05,0.0004,1e-05,2e-05,2,27.0
4014,-5e-05,7e-05,0.00025,0.00037,7e-05,0.0004,1e-05,2e-05,2,27.0
4015,-5e-05,7e-05,0.00025,0.00037,7e-05,0.0004,1e-05,2e-05,2,27.0
4016,-5e-05,7e-05,0.00025,0.00037,7e-05,0.0004,1e-05,2e-05,2,27.0
4017,-5e-05,7e-05,0.00025,0.00037,7e-05,0.0004,1e-05,2e-05,2,27.0
4018,-5e-05,7e-05,0.00025,0.00037,7e-05,0.0004,1e-05,2e-05,2,27.0
4019,0.00014,-1e-05,1e-05,0.00012,-0.00011,6e-05,4e-05,0.00019,2,27.0
4020,6e-05,-7e-05,-0.00013,-0.00034,9e-05,0.00034,0.00037,0.00017,2,27.0
4021,6e-05,-7e-05,-0.00013,-0.00034,9e-05,0.00034,0.00037,0.00017,2,27.0
4022,6e-05,-7e-05,-0.00013,-0.00034,9e-05,0.00034,0.00037,0.00017,2,27.0
4023,6e-05,-7e-05,-0.00013,-0.00034,9e-05,0.00034,0.00037,0.00017,2,27.0
4024,6e-05,-7e-05,-0.00013,-0.00034,9e-05,0.00034,0.00037,0.00017,2,27.0
4025,6e-05,-7e-05,-0.00013,-0.00034,9e-05,0.00034,0.00037,0.00017,2,27.0
4026,6e-05,-7e-05,-0.00013,-0.00034,9e-05,0.00034,0.00037,0.00017,2,27.0
4027,6e-05,-7e-05,-0.00013,-0.00034,9e-05,0.00034,0.00037,0.00017,2,27.0
4028,6e-05,-7e-05,-0.00013,-0.00034,9e-05,0.00034,0.00037,0.00017,2,27.0
4029,6e-05,-7e-05,-0.00013,-0.00034,9e-05,0.00034,0.00037,0.00017,2,27.0
4030,6e-05,-7e-05,-0.00013,-0.00034,9e-05,0.00034,0.00037,0.00017,2,27.0
4031,6e-05,-7e-05,-0.00013,-0.00034,9e-05,0.00034,0.00037,0.00017,2,27.0
4032,6e-05,-7e-05,-0.00013,-0.00034,9e-05,0.00034,0.00037,0.00017,2,27.0
4033,-7e-05,-7e-05,7e-05,-0.0002,7e-05,2e-05,-9e-05,-0.00014,2,27.0
4034,4e-05,-4e-05,4e-05,0.00023,-0.00028,-0.00038,0.00038,0.0001,2,27.0
4035,4e-05,-4e-05,4e-05,0.00023,-0.00028,-0.00038,0.00038,0.0001,2,27.0
4036,4e-05,-4e-05,4e-05,0.00023,-0.00028,-0.00038,0.00038,0.0001,2,27.0
4039,4e-05,-4e-05,4e-05,0.00023,-0.00028,-0.00038,0.00038,0.0001,2,27.0
4040,4e-05,-4e-05,4e-05,0.00023,-0.00028,-0.00038,0.00038,0.0001,2,27.0
4041,4e-05,-4e-05,4e-05,0.00023,-0.00028,-0.00038,0.00038,0.0001,2,27.0
4042,4e-05,-4e-05,4e-05,0.00023,-0.00028,-0.00038,0.00038,0.0001,2,27.0
4043,4e-05,-4e-05,4e-05,0.00023,-0.00028,-0.00038,0.00038,0.0001,2,27.0
4044,4e-05,-4e-05,4e-05,0.00023,-0.00028,-0.00038,0.00038,0.0001,2,27.0
4045,4e-05,-4e-05,4e-05,0.00023,-0.00028,-0.00038,0.00038,0.0001,2,27.0
4046,4e-05,-4e-05,4e-05,0.00023,-0.00028,-0.00038,0.00038,0.0001,2,27.0
4047,4e-05,-4e-05,4e-05,0.00023,-0.00028,-0.00038,0.00038,0.0001,2,27.0
4048,4e-05,-4e-05,4e-05,0.00023,-0.00028,-0.00038,0.00038,0.0001,2,27.0
4049,4e-05,-4e-05,4e-05,0.00023,-0.00028,-0.00038,0.00038,0.0001,2,27.0
4050,4e-05,-4e-05,4e-05,0.00023,-0.00028,-0.00038,0.00038,0.0001,2,27.0
4051,4e-05,-4e-05,4e-05,0.00023,-0.00028,-0.00038,0.00038,0.0001,2,27.0
4052,4e-05,-4e-05,4e-05,0.00023,-0.00028,-0.00038,0.00038,0.0001,2,27.0
4053,4e-05,-4e-05,4e-05,0.00023,-0.00028,-0.00038,0.00038,0.0001,2,27.0
4055,4e-05,-4e-05,4e-05,0.00023,-0.00028,-0.00038,0.00038,0.0001,2,27.0
4056,4e-05,-4e-05,4e-05,0.00023,-0.00028,-0.00038,0.00038,0.0001,2,27.0
4057,4e-05,-4e-05,4e-05,0.00023,-0.00028,-0.00038,0.00038,0.0001,2,27.0
4058,4e-05,-4e-05,4e-05,0.00023,-0.00028,-0.00038,0.00038,0.0001,2,27.0
4059,4e-05,-4e-05,4e-05,0.00023,-0.00028,-0.00038,0.00038,0.0001,2,27.0
4060,4e-05,-4e-05,4e-05,0.00023,-0.00028,-0.00038,0.00038,0.0001,2,27.0
4061,4e-05,-4e-05,4e-05,0.00023,-0.00028,-0.00038,0.00038,0.0001,2,27.0
4062,4e-05,-4e-05,4e-05,0.00023,-0.00028,-0.00038,0.00038,0.0001,2,27.0
4063,4e-05,-4e-05,4e-05,0.00023,-0.00028,-0.00038,0.00038,0.0001,2,27.0
4064,-0.00015,-3e-05,-0.00015,-1e-05,0.00021,4e-05,-0.00055,-0.00029,2,27.0
4065,-0.0001,7e-05,0.00025,0.0004,-8e-05,0.00026,-0.00058,-0.00029,2,27.0
4066,-0.0001,7e-05,0.00025,0.0004,-8e-05,0.00026,-0.00058,-0.00029,2,27.0
4067,-0.0001,7e-05,0.00025,0.0004,-8e-05,0.00026,-0.00058,-0.00029,2,27.0
4068,-0.0001,7e-05,0.00025,0.0004,-8e-05,0.00026,-0.00058,-0.00029,2,27.0
4069,-0.0001,7e-05,0.00025,0.0004,-8e-05,0.00026,-0.00058,-0.00029,2,27.0
4070,-0.0001,7e-05,0.00025,0.0004,-8e-05,0.00026,-0.00058,-0.00029,2,27.0
4071,0.00012,-9e-05,-0.00033,-0.00022,0.00015,5e-05,0.00032,0.00019,2,27.0
4072,-4e-05,-5e-05,9e-05,0.00017,-1e-05,3e-05,0.00037,0.0001,2,27.0
4073,-0.00011,-0.0001,-0.00026,-0.00041,-7e-05,-9e-05,-0.00026,-0.00023,2,27.0
4074,-0.00011,-0.0001,-0.00026,-0.00041,-7e-05,-9e-05,-0.00026,-0.00023,2,27.0
4075,-0.00011,-0.0001,-0.00026,-0.00041,-7e-05,-9e-05,-0.00026,-0.00023,2,27.0
4076,-0.00011,-0.0001,-0.00026,-0.00041,-7e-05,-9e-05,-0.00026,-0.00023,2,27.0
4077,-0.00011,-0.0001,-0.00026,-0.00041,-7e-05,-9e-05,-0.00026,-0.00023,2,27.0
4078,-0.00011,-0.0001,-0.00026,-0.00041,-7e-05,-9e-05,-0.00026,-0.00023,2,27.0
4079,-0.00011,-0.0001,-0.00026,-0.00041,-7e-05,-9e-05,-0.00026,-0.00023,2,27.0
4080,-0.00011,-0.0001,-0.00026,-0.00041,-7e-05,-9e-05,-0.00026,-0.00023,2,27.0
4081,-0.00011,-0.0001,-0.00026,-0.00041,-7e-05,-9e-05,-0.00026,-0.00023,2,27.0
4082,-0.00011,-0.0001,-0.00026,-0.00041,-7e-05,-9e-05,-0.00026,-0.00023,2,27.0
4083,-0.00011,-0.0001,-0.00026,-0.00041,-7e-05,-9e-05,-0.00026,-0.00023,2,27.0
4084,-0.00011,-0.0001,-0.00026,-0.00041,-7e-05,-9e-05,-0.00026,-0.00023,2,27.0
4085,-0.00011,-0.0001,-0.00026,-0.00041,-7e-05,-9e-05,-0.00026,-0.00023,2,27.0
4086,-0.00011,-0.0001,-0.00026,-0.00041,-7e-05,-9e-05,-0.00026,-0.00023,2,27.0
4089,-0.00011,-0.0001,-0.00026,-0.00041,-7e-05,-9e-05,-0.00026,-0.00023,2,27.0
4090,-0.00011,-0.0001,-0.00026,-0.00041,-7e-05,-9e-05,-0.00026,-0.00023,2,27.0
4091,-0.00011,-0.0001,-0.00026,-0.00041,-7e-05,-9e-05,-0.00026,-0.00023,2,27.0
4092,-0.00011,-0.0001,-0.00026,-0.00041,-7e-05,-9e-05,-0.00026,-0.00023,2,27.0
4093,-0.00011,-0.0001,-0.00026,-0.00041,-7e-05,-9e-05,-0.00026,-0.00023,2,27.0
4094,-1e-05,-2e-05,3e-05,0.00012,0.00013,9e-05,-0.0004,3e-05,2,27.0
4095,-1e-05,-2e-05,3e-05,0.00012,0.00013,9e-05,-0.0004,3e-05,2,27.0
4096,-1e-05,-2e-05,3e-05,0.00012,0.00013,9e-05,-0.0004,3e-05,2,27.0
4097,-1e-05,-2e-05,3e-05,0.00012,0.00013,9e-05,-0.0004,3e-05,2,27.0
4098,-1e-05,-2e-05,3e-05,0.00012,0.00013,9e-05,-0.0004,3e-05,2,27.0
4099,-1e-05,-2e-05,3e-05,0.00012,0.00013,9e-05,-0.0004,3e-05,2,27.0
4100,5e-05,-1e-05,2e-05,-0.00026,-9e-05,0.00011,3e-05,0.0001,2,27.0
4102,5e-05,-1e-05,2e-05,-0.00026,-9e-05,0.00011,3e-05,0.0001,2,27.0
4103,5e-05,-1e-05,2e-05,-0.00026,-9e-05,0.00011,3e-05,0.0001,2,27.0
4104,5e-05,-1e-05,2e-05,-0.00026,-9e-05,0.00011,3e-05,0.0001,2,27.0
4105,5e-05,-1e-05,2e-05,-0.00026,-9e-05,0.00011,3e-05,0.0001,2,27.0
4106,5e-05,-1e-05,2e-05,-0.00026,-9e-05,0.00011,3e-05,0.0001,2,27.0
4107,5e-05,-1e-05,2e-05,-0.00026,-9e-05,0.00011,3e-05,0.0001,2,27.0
4108,5e-05,-1e-05,2e-05,-0.00026,-9e-05,0.00011,3e-05,0.0001,2,27.0
4109,5e-05,-1e-05,2e-05,-0.00026,-9e-05,0.00011,3e-05,0.0001,2,27.0
4110,5e-05,-1e-05,2e-05,-0.00026,-9e-05,0.00011,3e-05,0.0001,2,27.0
4111,5e-05,-1e-05,2e-05,-0.00026,-9e-05,0.00011,3e-05,0.0001,2,27.0
4112,5e-05,-1e-05,2e-05,-0.00026,-9e-05,0.00011,3e-05,0.0001,2,27.0
4113,5e-05,-1e-05,2e-05,-0.00026,-9e-05,0.00011,3e-05,0.0001,2,27.0
4114,5e-05,-1e-05,2e-05,-0.00026,-9e-05,0.00011,3e-05,0.0001,2,27.0
4115,5e-05,-1e-05,2e-05,-0.00026,-9e-05,0.00011,3e-05,0.0001,2,27.0
4116,4e-05,5e-05,0.00014,0.00026,-6e-05,0.00038,0.00014,3e-05,2,27.0
4117,-2e-05,2e-05,-0.00012,-0.00024,4e-05,2e-05,-0.00011,-3e-05,2,27.0
4118,-2e-05,2e-05,-0.00012,-0.00024,4e-05,2e-05,-0.00011,-3e-05,2,27.0
4119,-2e-05,2e-05,-0.00012,-0.00024,4e-05,2e-05,-0.00011,-3e-05,2,27.0
4120,-2e-05,2e-05,-0.00012,-0.00024,4e-05,2e-05,-0.00011,-3e-05,2,27.0
4121,-2e-05,2e-05,-0.00012,-0.00024,4e-05,2e-05,-0.00011,-3e-05,2,27.0
4122,-2e-05,2e-05,-0.00012,-0.00024,4e-05,2e-05,-0.00011,-3e-05,2,27.0
4123,-2e-05,2e-05,-0.00012,-0.00024,4e-05,2e-05,-0.00011,-3e-05,2,27.0
4124,-2e-05,2e-05,-0.00012,-0.00024,4e-05,2e-05,-0.00011,-3e-05,2,27.0
4125,-2e-05,2e-05,-0.00012,-0.00024,4e-05,2e-05,-0.00011,-3e-05,2,27.0
4126,-2e-05,2e-05,-0.00012,-0.00024,4e-05,2e-05,-0.00011,-3e-05,2,27.0
4127,-2e-05,2e-05,-0.00012,-0.00024,4e-05,2e-05,-0.00011,-3e-05,2,27.0
4128,-2e-05,2e-05,-0.00012,-0.00024,4e-05,2e-05,-0.00011,-3e-05,2,27.0
4129,-2e-05,2e-05,-0.00012,-0.00024,4e-05,2e-05,-0.00011,-3e-05,2,27.0
4130,-2e-05,2e-05,-0.00012,-0.00024,4e-05,2e-05,-0.00011,-3e-05,2,27.0
4131,-2e-05,2e-05,-0.00012,-0.00024,4e-05,2e-05,-0.00011,-3e-05,2,27.0
4132,-2e-05,2e-05,-0.00012,-0.00024,4e-05,2e-05,-0.00011,-3e-05,2,27.0
4133,-2e-05,2e-05,-0.00012,-0.00024,4e-05,2e-05,-0.00011,-3e-05,2,27.0
4134,-2e-05,2e-05,-0.00012,-0.00024,4e-05,2e-05,-0.00011,-3e-05,2,27.0
4135,-2e-05,2e-05,-0.00012,-0.00024,4e-05,2e-05,-0.00011,-3e-05,2,27.0
4136,-2e-05,2e-05,-0.00012,-0.00024,4e-05,2e-05,-0.00011,-3e-05,2,27.0
4139,9e-05,3e-05,4e-05,8e-05,-0.00013,0.00014,0.00075,0.00029,2,27.0
4140,9e-05,3e-05,4e-05,8e-05,-0.00013,0.00014,0.00075,0.00029,2,27.0
4141,9e-05,3e-05,4e-05,8e-05,-0.00013,0.00014,0.00075,0.00029,2,27.0
4142,9e-05,3e-05,4e-05,8e-05,-0.00013,0.00014,0.00075,0.00029,2,27.0
4143,9e-05,3e-05,4e-05,8e-05,-0.00013,0.00014,0.00075,0.00029,2,27.0
4144,9e-05,3e-05,4e-05,8e-05,-0.00013,0.00014,0.00075,0.00029,2,27.0
4145,9e-05,3e-05,4e-05,8e-05,-0.00013,0.00014,0.00075,0.00029,2,27.0
4146,0.0001,1e-05,-3e-05,-0.00026,0.00022,-0.00011,0.00013,6e-05,2,27.0
4147,0.0001,1e-05,-3e-05,-0.00026,0.00022,-0.00011,0.00013,6e-05,2,27.0
4148,0.0001,1e-05,-3e-05,-0.00026,0.00022,-0.00011,0.00013,6e-05,2,27.0
4149,0.0001,1e-05,-3e-05,-0.00026,0.00022,-0.00011,0.00013,6e-05,2,27.0
4150,0.0001,1e-05,-3e-05,-0.00026,0.00022,-0.00011,0.00013,6e-05,2,27.0
4151,0.0001,1e-05,-3e-05,-0.00026,0.00022,-0.00011,0.00013,6e-05,2,27.0
4152,0.0001,1e-05,-3e-05,-0.00026,0.00022,-0.00011,0.00013,6e-05,2,27.0
4153,0.0001,1e-05,-3e-05,-0.00026,0.00022,-0.00011,0.00013,6e-05,2,27.0
4154,0.0001,1e-05,-3e-05,-0.00026,0.00022,-0.00011,0.00013,6e-05,2,27.0
4155,0.0001,1e-05,-3e-05,-0.00026,0.00022,-0.00011,0.00013,6e-05,2,27.0
4156,0.0001,1e-05,-3e-05,-0.00026,0.00022,-0.00011,0.00013,6e-05,2,27.0
4157,0.0001,1e-05,-3e-05,-0.00026,0.00022,-0.00011,0.00013,6e-05,2,27.0
4158,0.0001,1e-05,-3e-05,-0.00026,0.00022,-0.00011,0.00013,6e-05,2,27.0
4159,0.0001,1e-05,-3e-05,-0.00026,0.00022,-0.00011,0.00013,6e-05,2,27.0
4160,0.0001,1e-05,-3e-05,-0.00026,0.00022,-0.00011,0.00013,6e-05,2,27.0
4161,0.0001,1e-05,-3e-05,-0.00026,0.00022,-0.00011,0.00013,6e-05,2,27.0
4162,0.0001,1e-05,-3e-05,-0.00026,0.00022,-0.00011,0.00013,6e-05,2,27.0
4163,-0.00011,-1e-05,7e-05,0.00021,2e-05,-5e-05,-0.00013,-0.00021,2,27.0
4164,-0.00011,-1e-05,7e-05,0.00021,2e-05,-5e-05,-0.00013,-0.00021,2,27.0
4165,-0.00011,-1e-05,7e-05,0.00021,2e-05,-5e-05,-0.00013,-0.00021,2,27.0
4166,-0.00011,-1e-05,7e-05,0.00021,2e-05,-5e-05,-0.00013,-0.00021,2,27.0
4167,-0.00011,-1e-05,7e-05,0.00021,2e-05,-5e-05,-0.00013,-0.00021,2,27.0
4168,-0.00011,-1e-05,7e-05,0.00021,2e-05,-5e-05,-0.00013,-0.00021,2,27.0
4169,-0.00011,-1e-05,7e-05,0.00021,2e-05,-5e-05,-0.00013,-0.00021,2,27.0
4170,-0.00011,-1e-05,7e-05,0.00021,2e-05,-5e-05,-0.00013,-0.00021,2,27.0
4171,-0.00011,-1e-05,7e-05,0.00021,2e-05,-5e-05,-0.00013,-0.00021,2,27.0
4172,-0.00011,-1e-05,7e-05,0.00021,2e-05,-5e-05,-0.00013,-0.00021,2,27.0
4173,-0.00011,-1e-05,7e-05,0.00021,2e-05,-5e-05,-0.00013,-0.00021,2,27.0
4174,-0.00011,-1e-05,7e-05,0.00021,2e-05,-5e-05,-0.00013,-0.00021,2,27.0
4175,-0.00011,-1e-05,7e-05,0.00021,2e-05,-5e-05,-0.00013,-0.00021,2,27.0
4176,4e-05,2e-05,8e-05,0.00012,-6e-05,0.00028,4e-05,-3e-05,2,27.0
4177,-2e-05,-1e-05,1e-05,-0.00016,2e-05,0.00013,-0.00023,1e-05,2,27.0
4178,-2e-05,-1e-05,1e-05,-0.00016,2e-05,0.00013,-0.00023,1e-05,2,27.0
4179,-2e-05,-1e-05,1e-05,-0.00016,2e-05,0.00013,-0.00023,1e-05,2,27.0
4180,-2e-05,-1e-05,1e-05,-0.00016,2e-05,0.00013,-0.00023,1e-05,2,27.0
4181,-2e-05,-1e-05,1e-05,-0.00016,2e-05,0.00013,-0.00023,1e-05,2,27.0
4182,-2e-05,-1e-05,1e-05,-0.00016,2e-05,0.00013,-0.00023,1e-05,2,27.0
4183,-2e-05,-1e-05,1e-05,-0.00016,2e-05,0.00013,-0.00023,1e-05,2,27.0
4184,-2e-05,-1e-05,1e-05,-0.00016,2e-05,0.00013,-0.00023,1e-05,2,27.0
4185,-2e-05,-1e-05,1e-05,-0.00016,2e-05,0.00013,-0.00023,1e-05,2,27.0
4186,-2e-05,-1e-05,1e-05,-0.00016,2e-05,0.00013,-0.00023,1e-05,2,27.0
4189,-2e-05,-1e-05,1e-05,-0.00016,2e-05,0.00013,-0.00023,1e-05,2,27.0
4190,6e-05,-4e-05,-4e-05,7e-05,-7e-05,5e-05,0.0003,0.0001,2,27.0
4191,6e-05,-4e-05,-4e-05,7e-05,-7e-05,5e-05,0.0003,0.0001,2,27.0
4192,6e-05,-4e-05,-4e-05,7e-05,-7e-05,5e-05,0.0003,0.0001,2,27.0
4193,6e-05,-4e-05,-4e-05,7e-05,-7e-05,5e-05,0.0003,0.0001,2,27.0
4194,6e-05,-4e-05,-4e-05,7e-05,-7e-05,5e-05,0.0003,0.0001,2,27.0
4195,6e-05,-4e-05,-4e-05,7e-05,-7e-05,5e-05,0.0003,0.0001,2,27.0
4196,6e-05,-4e-05,-4e-05,7e-05,-7e-05,5e-05,0.0003,0.0001,2,27.0
4197,6e-05,-4e-05,-4e-05,7e-05,-7e-05,5e-05,0.0003,0.0001,2,27.0
4198,4e-05,0.0001,0.00016,0.00018,1e-05,0.0001,-0.00043,-6e-05,2,27.0
4199,4e-05,0.0001,0.00016,0.00018,1e-05,0.0001,-0.00043,-6e-05,2,27.0
4200,4e-05,0.0001,0.00016,0.00018,1e-05,0.0001,-0.00043,-6e-05,2,27.0
4201,4e-05,0.0001,0.00016,0.00018,1e-05,0.0001,-0.00043,-6e-05,2,27.0
4202,4e-05,0.0001,0.00016,0.00018,1e-05,0.0001,-0.00043,-6e-05,2,27.0
4203,4e-05,0.0001,0.00016,0.00018,1e-05,0.0001,-0.00043,-6e-05,2,27.0
4204,4e-05,0.0001,0.00016,0.00018,1e-05,0.0001,-0.00043,-6e-05,2,27.0
4205,4e-05,0.0001,0.00016,0.00018,1e-05,0.0001,-0.00043,-6e-05,2,27.0
4206,4e-05,0.0001,0.00016,0.00018,1e-05,0.0001,-0.00043,-6e-05,2,27.0
4207,4e-05,0.0001,0.00016,0.00018,1e-05,0.0001,-0.00043,-6e-05,2,27.0
4208,4e-05,0.0001,0.00016,0.00018,1e-05,0.0001,-0.00043,-6e-05,2,27.0
4209,4e-05,0.0001,0.00016,0.00018,1e-05,0.0001,-0.00043,-6e-05,2,27.0
4210,4e-05,0.0001,0.00016,0.00018,1e-05,0.0001,-0.00043,-6e-05,2,27.0
4211,4e-05,0.0001,0.00016,0.00018,1e-05,0.0001,-0.00043,-6e-05,2,27.0
4212,4e-05,0.0001,0.00016,0.00018,1e-05,0.0001,-0.00043,-6e-05,2,27.0
4213,4e-05,0.0001,0.00016,0.00018,1e-05,0.0001,-0.00043,-6e-05,2,27.0
4214,-4e-05,-3e-05,-0.00022,-0.0004,-0.00012,-0.00019,-0.00026,-5e-05,2,27.0
4215,6e-05,-8e-05,-0.00012,-1e-05,5e-05,-0.00013,0.00028,1e-05,2,27.0
4216,6e-05,-8e-05,-0.00012,-1e-05,5e-05,-0.00013,0.00028,1e-05,2,27.0
4217,6e-05,-8e-05,-0.00012,-1e-05,5e-05,-0.00013,0.00028,1e-05,2,27.0
4218,6e-05,-8e-05,-0.00012,-1e-05,5e-05,-0.00013,0.00028,1e-05,2,27.0
4219,6e-05,-8e-05,-0.00012,-1e-05,5e-05,-0.00013,0.00028,1e-05,2,27.0
4220,6e-05,-8e-05,-0.00012,-1e-05,5e-05,-0.00013,0.00028,1e-05,2,27.0
4221,6e-05,-8e-05,-0.00012,-1e-05,5e-05,-0.00013,0.00028,1e-05,2,27.0
4222,6e-05,-8e-05,-0.00012,-1e-05,5e-05,-0.00013,0.00028,1e-05,2,27.0
4223,6e-05,-8e-05,-0.00012,-1e-05,5e-05,-0.00013,0.00028,1e-05,2,27.0
4224,6e-05,-8e-05,-0.00012,-1e-05,5e-05,-0.00013,0.00028,1e-05,2,27.0
4225,6e-05,-8e-05,-0.00012,-1e-05,5e-05,-0.00013,0.00028,1e-05,2,27.0
4226,6e-05,-8e-05,-0.00012,-1e-05,5e-05,-0.00013,0.00028,1e-05,2,27.0
4227,6e-05,-8e-05,-0.00012,-1e-05,5e-05,-0.00013,0.00028,1e-05,2,27.0
4228,6e-05,-8e-05,-0.00012,-1e-05,5e-05,-0.00013,0.00028,1e-05,2,27.0
4229,6e-05,-8e-05,-0.00012,-1e-05,5e-05,-0.00013,0.00028,1e-05,2,27.0
4230,6e-05,-8e-05,-0.00012,-1e-05,5e-05,-0.00013,0.00028,1e-05,2,27.0
4231,6e-05,-8e-05,-0.00012,-1e-05,5e-05,-0.00013,0.00028,1e-05,2,27.0
4232,6e-05,-8e-05,-0.00012,-1e-05,5e-05,-0.00013,0.00028,1e-05,2,27.0
4233,6e-05,-8e-05,-0.00012,-1e-05,5e-05,-0.00013,0.00028,1e-05,2,27.0
4234,6e-05,-8e-05,-0.00012,-1e-05,5e-05,-0.00013,0.00028,1e-05,2,27.0
4235,6e-05,-8e-05,-0.00012,-1e-05,5e-05,-0.00013,0.00028,1e-05,2,27.0
4236,-1e-05,2e-05,-8e-05,-0.00027,-9e-05,-1e-05,-0.00037,-8e-05,2,27.0
4239,-3e-05,-6e-05,-0.00018,4e-05,-0.00018,-0.00041,9e-05,0.0,2,27.0
4240,-3e-05,-6e-05,-0.00018,4e-05,-0.00018,-0.00041,9e-05,0.0,2,27.0
4241,-3e-05,-6e-05,-0.00018,4e-05,-0.00018,-0.00041,9e-05,0.0,2,27.0
4242,-3e-05,-6e-05,-0.00018,4e-05,-0.00018,-0.00041,9e-05,0.0,2,27.0
4243,-3e-05,-6e-05,-0.00018,4e-05,-0.00018,-0.00041,9e-05,0.0,2,27.0
4244,-3e-05,-6e-05,-0.00018,4e-05,-0.00018,-0.00041,9e-05,0.0,2,27.0
4245,-3e-05,-6e-05,-0.00018,4e-05,-0.00018,-0.00041,9e-05,0.0,2,27.0
4246,-3e-05,-6e-05,-0.00018,4e-05,-0.00018,-0.00041,9e-05,0.0,2,27.0
4247,-3e-05,-6e-05,-0.00018,4e-05,-0.00018,-0.00041,9e-05,0.0,2,27.0
4248,-3e-05,-6e-05,-0.00018,4e-05,-0.00018,-0.00041,9e-05,0.0,2,27.0
4249,-3e-05,-6e-05,-0.00018,4e-05,-0.00018,-0.00041,9e-05,0.0,2,27.0
4250,-3e-05,-6e-05,-0.00018,4e-05,-0.00018,-0.00041,9e-05,0.0,2,27.0
4251,-3e-05,-6e-05,-0.00018,4e-05,-0.00018,-0.00041,9e-05,0.0,2,27.0
4252,-3e-05,-6e-05,-0.00018,4e-05,-0.00018,-0.00041,9e-05,0.0,2,27.0
4253,-3e-05,-6e-05,-0.00018,4e-05,-0.00018,-0.00041,9e-05,0.0,2,27.0
4254,-3e-05,-6e-05,-0.00018,4e-05,-0.00018,-0.00041,9e-05,0.0,2,27.0
4255,-3e-05,-6e-05,-0.00018,4e-05,-0.00018,-0.00041,9e-05,0.0,2,27.0
4256,-3e-05,-6e-05,-0.00018,4e-05,-0.00018,-0.00041,9e-05,0.0,2,27.0
4257,-3e-05,-6e-05,-0.00018,4e-05,-0.00018,-0.00041,9e-05,0.0,2,27.0
4258,-3e-05,-6e-05,-0.00018,4e-05,-0.00018,-0.00041,9e-05,0.0,2,27.0
4259,1e-05,5e-05,0.00012,0.00033,2e-05,-0.00017,0.00026,0.00018,2,27.0
4260,-8e-05,-8e-05,-0.00015,-8e-05,3e-05,0.0002,7e-05,2e-05,2,27.0
4261,-8e-05,-8e-05,-0.00015,-8e-05,3e-05,0.0002,7e-05,2e-05,2,27.0
4262,-8e-05,-8e-05,-0.00015,-8e-05,3e-05,0.0002,7e-05,2e-05,2,27.0
4263,-8e-05,-8e-05,-0.00015,-8e-05,3e-05,0.0002,7e-05,2e-05,2,27.0
4264,-8e-05,-8e-05,-0.00015,-8e-05,3e-05,0.0002,7e-05,2e-05,2,27.0
4265,-8e-05,-8e-05,-0.00015,-8e-05,3e-05,0.0002,7e-05,2e-05,2,27.0
4266,-8e-05,-8e-05,-0.00015,-8e-05,3e-05,0.0002,7e-05,2e-05,2,27.0
4267,-8e-05,-8e-05,-0.00015,-8e-05,3e-05,0.0002,7e-05,2e-05,2,27.0
4268,-8e-05,-8e-05,-0.00015,-8e-05,3e-05,0.0002,7e-05,2e-05,2,27.0
4269,-8e-05,-8e-05,-0.00015,-8e-05,3e-05,0.0002,7e-05,2e-05,2,27.0
4270,-8e-05,-8e-05,-0.00015,-8e-05,3e-05,0.0002,7e-05,2e-05,2,27.0
4271,-8e-05,-8e-05,-0.00015,-8e-05,3e-05,0.0002,7e-05,2e-05,2,27.0
4272,-8e-05,-8e-05,-0.00015,-8e-05,3e-05,0.0002,7e-05,2e-05,2,27.0
4273,-8e-05,-8e-05,-0.00015,-8e-05,3e-05,0.0002,7e-05,2e-05,2,27.0
4274,0.0001,4e-05,5e-05,6e-05,4e-05,0.00029,9e-05,0.00013,2,27.0
4275,0.0001,4e-05,5e-05,6e-05,4e-05,0.00029,9e-05,0.00013,2,27.0
4276,0.0001,4e-05,5e-05,6e-05,4e-05,0.00029,9e-05,0.00013,2,27.0
4277,0.0001,4e-05,5e-05,6e-05,4e-05,0.00029,9e-05,0.00013,2,27.0
4278,0.0001,4e-05,5e-05,6e-05,4e-05,0.00029,9e-05,0.00013,2,27.0
4279,0.0001,4e-05,5e-05,6e-05,4e-05,0.00029,9e-05,0.00013,2,27.0
4280,0.0001,4e-05,5e-05,6e-05,4e-05,0.00029,9e-05,0.00013,2,27.0
4281,0.0001,4e-05,5e-05,6e-05,4e-05,0.00029,9e-05,0.00013,2,27.0
4282,0.0001,4e-05,5e-05,6e-05,4e-05,0.00029,9e-05,0.00013,2,27.0
4283,0.0001,4e-05,5e-05,6e-05,4e-05,0.00029,9e-05,0.00013,2,27.0
4284,0.0001,4e-05,5e-05,6e-05,4e-05,0.00029,9e-05,0.00013,2,27.0
4285,0.0001,4e-05,5e-05,6e-05,4e-05,0.00029,9e-05,0.00013,2,27.0
4286,0.0001,4e-05,5e-05,6e-05,4e-05,0.00029,9e-05,0.00013,2,27.0
4289,0.0001,4e-05,5e-05,6e-05,4e-05,0.00029,9e-05,0.00013,2,27.0
4290,0.0001,4e-05,5e-05,6e-05,4e-05,0.00029,9e-05,0.00013,2,27.0
4291,0.0001,4e-05,5e-05,6e-05,4e-05,0.00029,9e-05,0.00013,2,27.0
4292,0.0001,4e-05,5e-05,6e-05,4e-05,0.00029,9e-05,0.00013,2,27.0
4293,0.0001,4e-05,5e-05,6e-05,4e-05,0.00029,9e-05,0.00013,2,27.0
4294,0.0001,4e-05,5e-05,6e-05,4e-05,0.00029,9e-05,0.00013,2,27.0
4295,0.0001,4e-05,5e-05,6e-05,4e-05,0.00029,9e-05,0.00013,2,27.0
4296,-6e-05,4e-05,9e-05,-4e-05,-6e-05,-0.00044,-0.00021,-4e-05,2,27.0
4297,-6e-05,4e-05,9e-05,-4e-05,-6e-05,-0.00044,-0.00021,-4e-05,2,27.0
4298,-6e-05,4e-05,9e-05,-4e-05,-6e-05,-0.00044,-0.00021,-4e-05,2,27.0
4299,-6e-05,4e-05,9e-05,-4e-05,-6e-05,-0.00044,-0.00021,-4e-05,2,27.0
4300,-6e-05,4e-05,9e-05,-4e-05,-6e-05,-0.00044,-0.00021,-4e-05,2,27.0
4301,-6e-05,4e-05,9e-05,-4e-05,-6e-05,-0.00044,-0.00021,-4e-05,2,27.0
4302,-6e-05,4e-05,9e-05,-4e-05,-6e-05,-0.00044,-0.00021,-4e-05,2,27.0
4303,-6e-05,4e-05,9e-05,-4e-05,-6e-05,-0.00044,-0.00021,-4e-05,2,27.0
4304,-6e-05,4e-05,9e-05,-4e-05,-6e-05,-0.00044,-0.00021,-4e-05,2,27.0
4305,-6e-05,4e-05,9e-05,-4e-05,-6e-05,-0.00044,-0.00021,-4e-05,2,27.0
4306,-6e-05,4e-05,9e-05,-4e-05,-6e-05,-0.00044,-0.00021,-4e-05,2,27.0
4307,-6e-05,4e-05,9e-05,-4e-05,-6e-05,-0.00044,-0.00021,-4e-05,2,27.0
4308,-6e-05,4e-05,9e-05,-4e-05,-6e-05,-0.00044,-0.00021,-4e-05,2,27.0
4309,-6e-05,4e-05,9e-05,-4e-05,-6e-05,-0.00044,-0.00021,-4e-05,2,27.0
4310,-6e-05,4e-05,9e-05,-4e-05,-6e-05,-0.00044,-0.00021,-4e-05,2,27.0
4311,1e-05,-1e-05,4e-05,6e-05,-0.0001,0.00049,-0.00023,-0.00013,2,27.0
4312,-0.00013,-0.0001,-0.00037,-0.00032,0.00014,0.0,0.00016,3e-05,2,27.0
4313,-0.00013,-0.0001,-0.00037,-0.00032,0.00014,0.0,0.00016,3e-05,2,27.0
4314,-0.00013,-0.0001,-0.00037,-0.00032,0.00014,0.0,0.00016,3e-05,2,27.0
4315,-0.00013,-0.0001,-0.00037,-0.00032,0.00014,0.0,0.00016,3e-05,2,27.0
4316,-0.00013,-0.0001,-0.00037,-0.00032,0.00014,0.0,0.00016,3e-05,2,27.0
4317,-0.00013,-0.0001,-0.00037,-0.00032,0.00014,0.0,0.00016,3e-05,2,27.0
4318,8e-05,4e-05,0.00013,-0.00012,-4e-05,7e-05,2e-05,7e-05,2,27.0
4319,8e-05,4e-05,0.00013,-0.00012,-4e-05,7e-05,2e-05,7e-05,2,27.0
4320,8e-05,4e-05,0.00013,-0.00012,-4e-05,7e-05,2e-05,7e-05,2,27.0
4321,8e-05,4e-05,0.00013,-0.00012,-4e-05,7e-05,2e-05,7e-05,2,27.0
4322,8e-05,4e-05,0.00013,-0.00012,-4e-05,7e-05,2e-05,7e-05,2,27.0
4323,8e-05,4e-05,0.00013,-0.00012,-4e-05,7e-05,2e-05,7e-05,2,27.0
4324,8e-05,4e-05,0.00013,-0.00012,-4e-05,7e-05,2e-05,7e-05,2,27.0
4325,8e-05,4e-05,0.00013,-0.00012,-4e-05,7e-05,2e-05,7e-05,2,27.0
4326,8e-05,4e-05,0.00013,-0.00012,-4e-05,7e-05,2e-05,7e-05,2,27.0
4327,8e-05,4e-05,0.00013,-0.00012,-4e-05,7e-05,2e-05,7e-05,2,27.0
4328,8e-05,4e-05,0.00013,-0.00012,-4e-05,7e-05,2e-05,7e-05,2,27.0
4329,8e-05,4e-05,0.00013,-0.00012,-4e-05,7e-05,2e-05,7e-05,2,27.0
4330,8e-05,4e-05,0.00013,-0.00012,-4e-05,7e-05,2e-05,7e-05,2,27.0
4331,8e-05,4e-05,0.00013,-0.00012,-4e-05,7e-05,2e-05,7e-05,2,27.0
4332,8e-05,4e-05,0.00013,-0.00012,-4e-05,7e-05,2e-05,7e-05,2,27.0
4333,8e-05,4e-05,0.00013,-0.00012,-4e-05,7e-05,2e-05,7e-05,2,27.0
4334,-0.00012,-9e-05,-2e-05,0.00029,8e-05,-0.00057,-0.00037,-0.00013,2,27.0
4335,-0.00012,-9e-05,-2e-05,0.00029,8e-05,-0.00057,-0.00037,-0.00013,2,27.0
4336,-0.00012,-9e-05,-2e-05,0.00029,8e-05,-0.00057,-0.00037,-0.00013,2,27.0
4339,-0.00012,-9e-05,-2e-05,0.00029,8e-05,-0.00057,-0.00037,-0.00013,2,27.0
4340,-0.00012,-9e-05,-2e-05,0.00029,8e-05,-0.00057,-0.00037,-0.00013,2,27.0
4341,-2e-05,-0.00012,-0.00029,-0.00027,3e-05,0.0002,0.00037,2e-05,2,27.0
4342,-2e-05,-0.00012,-0.00029,-0.00027,3e-05,0.0002,0.00037,2e-05,2,27.0
4343,-2e-05,-0.00012,-0.00029,-0.00027,3e-05,0.0002,0.00037,2e-05,2,27.0
4344,-2e-05,-0.00012,-0.00029,-0.00027,3e-05,0.0002,0.00037,2e-05,2,27.0
4345,-2e-05,-0.00012,-0.00029,-0.00027,3e-05,0.0002,0.00037,2e-05,2,27.0
4346,-2e-05,-0.00012,-0.00029,-0.00027,3e-05,0.0002,0.00037,2e-05,2,27.0
4347,-2e-05,-0.00012,-0.00029,-0.00027,3e-05,0.0002,0.00037,2e-05,2,27.0
4348,-2e-05,-0.00012,-0.00029,-0.00027,3e-05,0.0002,0.00037,2e-05,2,27.0
4349,-2e-05,-0.00012,-0.00029,-0.00027,3e-05,0.0002,0.00037,2e-05,2,27.0
4350,-2e-05,-0.00012,-0.00029,-0.00027,3e-05,0.0002,0.00037,2e-05,2,27.0
4351,-2e-05,-0.00012,-0.00029,-0.00027,3e-05,0.0002,0.00037,2e-05,2,27.0
4352,-2e-05,-0.00012,-0.00029,-0.00027,3e-05,0.0002,0.00037,2e-05,2,27.0
4353,-2e-05,-0.00012,-0.00029,-0.00027,3e-05,0.0002,0.00037,2e-05,2,27.0
4354,-2e-05,-0.00012,-0.00029,-0.00027,3e-05,0.0002,0.00037,2e-05,2,27.0
4355,-2e-05,-0.00012,-0.00029,-0.00027,3e-05,0.0002,0.00037,2e-05,2,27.0
4356,5e-05,3e-05,0.0001,-1e-05,-0.00018,-0.00028,-0.00071,-9e-05,2,27.0
4357,-3e-05,-1e-05,-1e-05,-0.00031,7e-05,2e-05,0.00016,-8e-05,2,27.0
4358,-3e-05,-1e-05,-1e-05,-0.00031,7e-05,2e-05,0.00016,-8e-05,2,27.0
4359,-3e-05,-1e-05,-1e-05,-0.00031,7e-05,2e-05,0.00016,-8e-05,2,27.0
4360,-3e-05,-1e-05,-1e-05,-0.00031,7e-05,2e-05,0.00016,-8e-05,2,27.0
4361,-3e-05,-1e-05,-1e-05,-0.00031,7e-05,2e-05,0.00016,-8e-05,2,27.0
4362,-3e-05,-1e-05,-1e-05,-0.00031,7e-05,2e-05,0.00016,-8e-05,2,27.0
4363,-3e-05,-1e-05,-1e-05,-0.00031,7e-05,2e-05,0.00016,-8e-05,2,27.0
4364,-3e-05,-1e-05,-1e-05,-0.00031,7e-05,2e-05,0.00016,-8e-05,2,27.0
4365,-3e-05,-1e-05,-1e-05,-0.00031,7e-05,2e-05,0.00016,-8e-05,2,27.0
4366,-3e-05,-1e-05,-1e-05,-0.00031,7e-05,2e-05,0.00016,-8e-05,2,27.0
4367,-3e-05,-1e-05,-1e-05,-0.00031,7e-05,2e-05,0.00016,-8e-05,2,27.0
4368,-3e-05,-1e-05,-1e-05,-0.00031,7e-05,2e-05,0.00016,-8e-05,2,27.0
4369,-3e-05,-1e-05,-1e-05,-0.00031,7e-05,2e-05,0.00016,-8e-05,2,27.0
4370,-3e-05,-1e-05,-1e-05,-0.00031,7e-05,2e-05,0.00016,-8e-05,2,27.0
4371,-3e-05,-1e-05,-1e-05,-0.00031,7e-05,2e-05,0.00016,-8e-05,2,27.0
4372,-3e-05,-1e-05,-1e-05,-0.00031,7e-05,2e-05,0.00016,-8e-05,2,27.0
4373,-3e-05,-1e-05,-1e-05,-0.00031,7e-05,2e-05,0.00016,-8e-05,2,27.0
4374,-3e-05,-1e-05,-1e-05,-0.00031,7e-05,2e-05,0.00016,-8e-05,2,27.0
4375,-3e-05,-1e-05,-1e-05,-0.00031,7e-05,2e-05,0.00016,-8e-05,2,27.0
4376,-3e-05,-1e-05,-1e-05,-0.00031,7e-05,2e-05,0.00016,-8e-05,2,27.0
4377,-3e-05,-1e-05,-1e-05,-0.00031,7e-05,2e-05,0.00016,-8e-05,2,27.0
4378,-3e-05,-1e-05,-1e-05,-0.00031,7e-05,2e-05,0.00016,-8e-05,2,27.0
4379,-3e-05,-1e-05,-1e-05,-0.00031,7e-05,2e-05,0.00016,-8e-05,2,27.0
4380,-3e-05,-1e-05,-1e-05,-0.00031,7e-05,2e-05,0.00016,-8e-05,2,27.0
4381,-3e-05,-1e-05,-1e-05,-0.00031,7e-05,2e-05,0.00016,-8e-05,2,27.0
4382,-3e-05,-1e-05,-1e-05,-0.00031,7e-05,2e-05,0.00016,-8e-05,2,27.0
4383,-3e-05,-1e-05,-1e-05,-0.00031,7e-05,2e-05,0.00016,-8e-05,2,27.0
4384,-3e-05,-1e-05,-1e-05,-0.00031,7e-05,2e-05,0.00016,-8e-05,2,27.0
4385,-3e-05,-1e-05,-1e-05,-0.00031,7e-05,2e-05,0.00016,-8e-05,2,27.0
4387,9e-05,4e-05,4e-05,0.00015,3e-05,0.0002,2e-05,8e-05,2,27.0
4390,9e-05,4e-05,4e-05,0.00015,3e-05,0.0002,2e-05,8e-05,2,27.0
4391,9e-05,4e-05,4e-05,0.00015,3e-05,0.0002,2e-05,8e-05,2,27.0
4392,9e-05,4e-05,4e-05,0.00015,3e-05,0.0002,2e-05,8e-05,2,27.0
4393,-4e-05,-8e-05,-0.00014,-0.00015,2e-05,-0.00024,0.0001,-5e-05,2,27.0
4394,-1e-05,-2e-05,-3e-05,9e-05,0.00013,0.0,0.00028,-8e-05,2,27.0
4395,-1e-05,-2e-05,-3e-05,9e-05,0.00013,0.0,0.00028,-8e-05,2,27.0
4396,-1e-05,-2e-05,-3e-05,9e-05,0.00013,0.0,0.00028,-8e-05,2,27.0
