time,channel1,channel2,channel3,channel4,channel5,channel6,channel7,channel8,class,label
2648,-2e-05,-1e-05,-4e-05,-0.00022,-3e-05,-1e-05,-1e-05,-3e-05,1,30.0
2649,-2e-05,-1e-05,-4e-05,-0.00022,-3e-05,-1e-05,-1e-05,-3e-05,1,30.0
2650,-2e-05,-1e-05,-4e-05,-0.00022,-3e-05,-1e-05,-1e-05,-3e-05,1,30.0
2651,-2e-05,-1e-05,-4e-05,-0.00022,-3e-05,-1e-05,-1e-05,-3e-05,1,30.0
2652,-2e-05,-1e-05,-4e-05,-0.00022,-3e-05,-1e-05,-1e-05,-3e-05,1,30.0
2653,-2e-05,-1e-05,-4e-05,-0.00022,-3e-05,-1e-05,-1e-05,-3e-05,1,30.0
2654,-2e-05,-1e-05,-4e-05,-0.00022,-3e-05,-1e-05,-1e-05,-3e-05,1,30.0
2655,-2e-05,-1e-05,-4e-05,-0.00022,-3e-05,-1e-05,-1e-05,-3e-05,1,30.0
2656,-2e-05,-1e-05,-4e-05,-0.00022,-3e-05,-1e-05,-1e-05,-3e-05,1,30.0
2657,-2e-05,-1e-05,-4e-05,-0.00022,-3e-05,-1e-05,-1e-05,-3e-05,1,30.0
2658,-2e-05,-1e-05,-4e-05,-0.00022,-3e-05,-1e-05,-1e-05,-3e-05,1,30.0
2659,-2e-05,-1e-05,-4e-05,-0.00022,-3e-05,-1e-05,-1e-05,-3e-05,1,30.0
2660,-2e-05,-1e-05,-4e-05,-0.00022,-3e-05,-1e-05,-1e-05,-3e-05,1,30.0
2661,-2e-05,-1e-05,-4e-05,-0.00022,-3e-05,-1e-05,-1e-05,-3e-05,1,30.0
2662,-2e-05,-1e-05,-4e-05,-0.00022,-3e-05,-1e-05,-1e-05,-3e-05,1,30.0
2663,-2e-05,-1e-05,-4e-05,-0.00022,-3e-05,-1e-05,-1e-05,-3e-05,1,30.0
2664,-2e-05,-1e-05,-4e-05,-0.00022,-3e-05,-1e-05,-1e-05,-3e-05,1,30.0
2665,-2e-05,-1e-05,-4e-05,-0.00022,-3e-05,-1e-05,-1e-05,-3e-05,1,30.0
2666,-2e-05,-1e-05,-4e-05,-0.00022,-3e-05,-1e-05,-1e-05,-3e-05,1,30.0
2667,-2e-05,-1e-05,-4e-05,-0.00022,-3e-05,-1e-05,-1e-05,-3e-05,1,30.0
2668,-2e-05,-1e-05,-4e-05,-0.00022,-3e-05,-1e-05,-1e-05,-3e-05,1,30.0
2669,-2e-05,-1e-05,-4e-05,-0.00022,-3e-05,-1e-05,-1e-05,-3e-05,1,30.0
2670,-2e-05,-1e-05,-4e-05,-0.00022,-3e-05,-1e-05,-1e-05,-3e-05,1,30.0
2671,-2e-05,-1e-05,-4e-05,-0.00022,-3e-05,-1e-05,-1e-05,-3e-05,1,30.0
2672,-2e-05,-1e-05,-4e-05,-0.00022,-3e-05,-1e-05,-1e-05,-3e-05,1,30.0
2673,-1e-05,0.0,0.00055,0.00016,2e-05,-3e-05,-1e-05,0.0,1,30.0
2674,-1e-05,-6e-05,1e-05,3e-05,0.0,-2e-05,0.0,-1e-05,1,30.0
2675,-1e-05,-6e-05,1e-05,3e-05,0.0,-2e-05,0.0,-1e-05,1,30.0
2676,-1e-05,-6e-05,1e-05,3e-05,0.0,-2e-05,0.0,-1e-05,1,30.0
2677,-1e-05,-6e-05,1e-05,3e-05,0.0,-2e-05,0.0,-1e-05,1,30.0
2678,-1e-05,-6e-05,1e-05,3e-05,0.0,-2e-05,0.0,-1e-05,1,30.0
2679,-1e-05,-1e-05,1e-05,3e-05,0.0,-1e-05,-2e-05,-2e-05,1,30.0
2680,1e-05,2e-05,3e-05,4e-05,0.0,0.0,0.0,0.0,1,30.0
2681,1e-05,2e-05,3e-05,4e-05,0.0,0.0,0.0,0.0,1,30.0
2682,1e-05,2e-05,3e-05,4e-05,0.0,0.0,0.0,0.0,1,30.0
2683,1e-05,2e-05,3e-05,4e-05,0.0,0.0,0.0,0.0,1,30.0
2684,1e-05,2e-05,3e-05,4e-05,0.0,0.0,0.0,0.0,1,30.0
2685,1e-05,2e-05,3e-05,4e-05,0.0,0.0,0.0,0.0,1,30.0
2686,1e-05,2e-05,3e-05,4e-05,0.0,0.0,0.0,0.0,1,30.0
2688,1e-05,2e-05,3e-05,4e-05,0.0,0.0,0.0,0.0,1,30.0
2689,1e-05,2e-05,3e-05,4e-05,0.0,0.0,0.0,0.0,1,30.0
2690,1e-05,2e-05,3e-05,4e-05,0.0,0.0,0.0,0.0,1,30.0
2691,1e-05,2e-05,3e-05,4e-05,0.0,0.0,0.0,0.0,1,30.0
2692,1e-05,2e-05,3e-05,4e-05,0.0,0.0,0.0,0.0,1,30.0
2693,1e-05,2e-05,3e-05,4e-05,0.0,0.0,0.0,0.0,1,30.0
2694,1e-05,2e-05,3e-05,4e-05,0.0,0.0,0.0,0.0,1,30.0
2695,1e-05,2e-05,3e-05,4e-05,0.0,0.0,0.0,0.0,1,30.0
2696,1e-05,2e-05,3e-05,4e-05,0.0,0.0,0.0,0.0,1,30.0
2697,1e-05,2e-05,3e-05,4e-05,0.0,0.0,0.0,0.0,1,30.0
2698,1e-05,2e-05,3e-05,4e-05,0.0,0.0,0.0,0.0,1,30.0
2699,1e-05,2e-05,3e-05,4e-05,0.0,0.0,0.0,0.0,1,30.0
2700,1e-05,2e-05,3e-05,4e-05,0.0,0.0,0.0,0.0,1,30.0
2701,0.0,0.0,-5e-05,2e-05,-1e-05,0.0,1e-05,0.0,1,30.0
2702,0.0,0.0,-9e-05,-6e-05,-1e-05,-1e-05,-1e-05,0.0,1,30.0
2703,0.0,0.0,-9e-05,-6e-05,-1e-05,-1e-05,-1e-05,0.0,1,30.0
2704,0.0,0.0,-9e-05,-6e-05,-1e-05,-1e-05,-1e-05,0.0,1,30.0
2705,0.0,0.0,-9e-05,-6e-05,-1e-05,-1e-05,-1e-05,0.0,1,30.0
2706,0.0,0.0,-9e-05,-6e-05,-1e-05,-1e-05,-1e-05,0.0,1,30.0
2707,0.0,0.0,-9e-05,-6e-05,-1e-05,-1e-05,-1e-05,0.0,1,30.0
2708,0.0,0.0,-9e-05,-6e-05,-1e-05,-1e-05,-1e-05,0.0,1,30.0
2709,0.0,0.0,-9e-05,-6e-05,-1e-05,-1e-05,-1e-05,0.0,1,30.0
2710,0.0,0.0,-9e-05,-6e-05,-1e-05,-1e-05,-1e-05,0.0,1,30.0
2711,0.0,0.0,-9e-05,-6e-05,-1e-05,-1e-05,-1e-05,0.0,1,30.0
2712,0.0,0.0,-9e-05,-6e-05,-1e-05,-1e-05,-1e-05,0.0,1,30.0
2713,0.0,0.0,-9e-05,-6e-05,-1e-05,-1e-05,-1e-05,0.0,1,30.0
2714,0.0,0.0,-9e-05,-6e-05,-1e-05,-1e-05,-1e-05,0.0,1,30.0
2715,0.0,0.0,-9e-05,-6e-05,-1e-05,-1e-05,-1e-05,0.0,1,30.0
2716,0.0,-1e-05,-0.00011,-5e-05,-1e-05,-2e-05,0.0,-1e-05,1,30.0
2717,0.0,0.0,2e-05,3e-05,1e-05,-1e-05,-1e-05,0.0,1,30.0
2718,0.0,0.0,2e-05,3e-05,1e-05,-1e-05,-1e-05,0.0,1,30.0
2719,0.0,0.0,2e-05,3e-05,1e-05,-1e-05,-1e-05,0.0,1,30.0
2720,0.0,0.0,2e-05,3e-05,1e-05,-1e-05,-1e-05,0.0,1,30.0
2721,0.0,0.0,2e-05,3e-05,1e-05,-1e-05,-1e-05,0.0,1,30.0
2722,0.0,0.0,2e-05,3e-05,1e-05,-1e-05,-1e-05,0.0,1,30.0
2723,0.0,0.0,2e-05,3e-05,1e-05,-1e-05,-1e-05,0.0,1,30.0
2724,0.0,0.0,2e-05,3e-05,1e-05,-1e-05,-1e-05,0.0,1,30.0
2725,0.0,0.0,2e-05,3e-05,1e-05,-1e-05,-1e-05,0.0,1,30.0
2726,0.0,0.0,2e-05,3e-05,1e-05,-1e-05,-1e-05,0.0,1,30.0
2727,0.0,0.0,2e-05,3e-05,1e-05,-1e-05,-1e-05,0.0,1,30.0
2728,0.0,0.0,2e-05,3e-05,1e-05,-1e-05,-1e-05,0.0,1,30.0
2729,0.0,0.0,2e-05,3e-05,1e-05,-1e-05,-1e-05,0.0,1,30.0
2730,0.0,0.0,2e-05,3e-05,1e-05,-1e-05,-1e-05,0.0,1,30.0
2731,0.0,0.0,2e-05,3e-05,1e-05,-1e-05,-1e-05,0.0,1,30.0
2732,0.0,0.0,2e-05,3e-05,1e-05,-1e-05,-1e-05,0.0,1,30.0
2733,0.0,0.0,2e-05,3e-05,1e-05,-1e-05,-1e-05,0.0,1,30.0
2734,0.0,0.0,2e-05,3e-05,1e-05,-1e-05,-1e-05,0.0,1,30.0
2735,0.0,0.0,2e-05,3e-05,1e-05,-1e-05,-1e-05,0.0,1,30.0
2736,0.0,0.0,2e-05,3e-05,1e-05,-1e-05,-1e-05,0.0,1,30.0
2738,0.0,0.0,2e-05,3e-05,1e-05,-1e-05,-1e-05,0.0,1,30.0
2739,1e-05,1e-05,5e-05,8e-05,1e-05,0.0,-1e-05,0.0,1,30.0
2740,1e-05,1e-05,5e-05,8e-05,1e-05,0.0,-1e-05,0.0,1,30.0
2741,1e-05,1e-05,5e-05,8e-05,1e-05,0.0,-1e-05,0.0,1,30.0
2742,1e-05,1e-05,5e-05,8e-05,1e-05,0.0,-1e-05,0.0,1,30.0
2743,1e-05,1e-05,5e-05,8e-05,1e-05,0.0,-1e-05,0.0,1,30.0
2744,1e-05,1e-05,5e-05,8e-05,1e-05,0.0,-1e-05,0.0,1,30.0
2745,1e-05,1e-05,5e-05,8e-05,1e-05,0.0,-1e-05,0.0,1,30.0
2746,1e-05,1e-05,5e-05,8e-05,1e-05,0.0,-1e-05,0.0,1,30.0
2747,1e-05,1e-05,5e-05,8e-05,1e-05,0.0,-1e-05,0.0,1,30.0
2748,1e-05,1e-05,5e-05,8e-05,1e-05,0.0,-1e-05,0.0,1,30.0
2749,1e-05,1e-05,5e-05,8e-05,1e-05,0.0,-1e-05,0.0,1,30.0
2750,1e-05,1e-05,5e-05,8e-05,1e-05,0.0,-1e-05,0.0,1,30.0
2751,1e-05,1e-05,5e-05,8e-05,1e-05,0.0,-1e-05,0.0,1,30.0
2752,1e-05,1e-05,5e-05,8e-05,1e-05,0.0,-1e-05,0.0,1,30.0
2753,1e-05,1e-05,5e-05,8e-05,1e-05,0.0,-1e-05,0.0,1,30.0
2754,1e-05,1e-05,5e-05,8e-05,1e-05,0.0,-1e-05,0.0,1,30.0
2755,1e-05,1e-05,5e-05,8e-05,1e-05,0.0,-1e-05,0.0,1,30.0
2756,1e-05,1e-05,5e-05,8e-05,1e-05,0.0,-1e-05,0.0,1,30.0
2757,1e-05,1e-05,5e-05,8e-05,1e-05,0.0,-1e-05,0.0,1,30.0
2758,1e-05,1e-05,5e-05,8e-05,1e-05,0.0,-1e-05,0.0,1,30.0
2759,1e-05,1e-05,5e-05,8e-05,1e-05,0.0,-1e-05,0.0,1,30.0
2760,1e-05,1e-05,5e-05,8e-05,1e-05,0.0,-1e-05,0.0,1,30.0
2761,-4e-05,-8e-05,-0.00023,-2e-05,5e-05,1e-05,1e-05,-2e-05,1,30.0
2762,1e-05,1e-05,-5e-05,2e-05,1e-05,-1e-05,-2e-05,-2e-05,1,30.0
2763,1e-05,1e-05,-5e-05,2e-05,1e-05,-1e-05,-2e-05,-2e-05,1,30.0
2764,1e-05,1e-05,-5e-05,2e-05,1e-05,-1e-05,-2e-05,-2e-05,1,30.0
2765,1e-05,1e-05,-5e-05,2e-05,1e-05,-1e-05,-2e-05,-2e-05,1,30.0
2766,1e-05,1e-05,-5e-05,2e-05,1e-05,-1e-05,-2e-05,-2e-05,1,30.0
2767,1e-05,1e-05,-5e-05,2e-05,1e-05,-1e-05,-2e-05,-2e-05,1,30.0
2768,1e-05,1e-05,-5e-05,2e-05,1e-05,-1e-05,-2e-05,-2e-05,1,30.0
2769,1e-05,1e-05,-5e-05,2e-05,1e-05,-1e-05,-2e-05,-2e-05,1,30.0
2770,1e-05,1e-05,-5e-05,2e-05,1e-05,-1e-05,-2e-05,-2e-05,1,30.0
2771,1e-05,1e-05,-5e-05,2e-05,1e-05,-1e-05,-2e-05,-2e-05,1,30.0
2772,1e-05,1e-05,-5e-05,2e-05,1e-05,-1e-05,-2e-05,-2e-05,1,30.0
2773,1e-05,1e-05,-5e-05,2e-05,1e-05,-1e-05,-2e-05,-2e-05,1,30.0
2774,1e-05,1e-05,-5e-05,2e-05,1e-05,-1e-05,-2e-05,-2e-05,1,30.0
2775,-1e-05,0.0,0.00038,-1e-05,-6e-05,-1e-05,-1e-05,-2e-05,1,30.0
2776,-1e-05,0.0,0.00038,-1e-05,-6e-05,-1e-05,-1e-05,-2e-05,1,30.0
2777,-1e-05,0.0,0.00038,-1e-05,-6e-05,-1e-05,-1e-05,-2e-05,1,30.0
2778,-1e-05,0.0,0.00038,-1e-05,-6e-05,-1e-05,-1e-05,-2e-05,1,30.0
2779,-1e-05,0.0,0.00038,-1e-05,-6e-05,-1e-05,-1e-05,-2e-05,1,30.0
2780,-1e-05,0.0,0.00038,-1e-05,-6e-05,-1e-05,-1e-05,-2e-05,1,30.0
2781,-1e-05,0.0,0.00038,-1e-05,-6e-05,-1e-05,-1e-05,-2e-05,1,30.0
2782,-1e-05,0.0,0.00038,-1e-05,-6e-05,-1e-05,-1e-05,-2e-05,1,30.0
2783,-1e-05,0.0,0.00038,-1e-05,-6e-05,-1e-05,-1e-05,-2e-05,1,30.0
2784,1e-05,-3e-05,0.00013,2e-05,0.0,0.0,-1e-05,-2e-05,1,30.0
2785,1e-05,-3e-05,0.00013,2e-05,0.0,0.0,-1e-05,-2e-05,1,30.0
2786,1e-05,-3e-05,0.00013,2e-05,0.0,0.0,-1e-05,-2e-05,1,30.0
2788,1e-05,-3e-05,0.00013,2e-05,0.0,0.0,-1e-05,-2e-05,1,30.0
2789,1e-05,-3e-05,0.00013,2e-05,0.0,0.0,-1e-05,-2e-05,1,30.0
2790,1e-05,-3e-05,0.00013,2e-05,0.0,0.0,-1e-05,-2e-05,1,30.0
2791,1e-05,-3e-05,0.00013,2e-05,0.0,0.0,-1e-05,-2e-05,1,30.0
2792,1e-05,-3e-05,0.00013,2e-05,0.0,0.0,-1e-05,-2e-05,1,30.0
2793,1e-05,-3e-05,0.00013,2e-05,0.0,0.0,-1e-05,-2e-05,1,30.0
2794,1e-05,-3e-05,0.00013,2e-05,0.0,0.0,-1e-05,-2e-05,1,30.0
2795,1e-05,-3e-05,0.00013,2e-05,0.0,0.0,-1e-05,-2e-05,1,30.0
2796,1e-05,-3e-05,0.00013,2e-05,0.0,0.0,-1e-05,-2e-05,1,30.0
2797,1e-05,-3e-05,0.00013,2e-05,0.0,0.0,-1e-05,-2e-05,1,30.0
2798,0.0,1e-05,8e-05,5e-05,1e-05,-1e-05,-2e-05,-2e-05,1,30.0
2799,-2e-05,-2e-05,-8e-05,-6e-05,-2e-05,-1e-05,-1e-05,-1e-05,1,30.0
2800,-2e-05,-2e-05,-8e-05,-6e-05,-2e-05,-1e-05,-1e-05,-1e-05,1,30.0
2801,-2e-05,-2e-05,-8e-05,-6e-05,-2e-05,-1e-05,-1e-05,-1e-05,1,30.0
2802,-2e-05,-2e-05,-8e-05,-6e-05,-2e-05,-1e-05,-1e-05,-1e-05,1,30.0
2803,-2e-05,-2e-05,-8e-05,-6e-05,-2e-05,-1e-05,-1e-05,-1e-05,1,30.0
2804,-2e-05,-2e-05,-8e-05,-6e-05,-2e-05,-1e-05,-1e-05,-1e-05,1,30.0
2805,-2e-05,-2e-05,-8e-05,-6e-05,-2e-05,-1e-05,-1e-05,-1e-05,1,30.0
2806,-2e-05,-2e-05,-8e-05,-6e-05,-2e-05,-1e-05,-1e-05,-1e-05,1,30.0
2807,-2e-05,-2e-05,-8e-05,-6e-05,-2e-05,-1e-05,-1e-05,-1e-05,1,30.0
2808,-2e-05,-2e-05,-8e-05,-6e-05,-2e-05,-1e-05,-1e-05,-1e-05,1,30.0
2809,-2e-05,-2e-05,-8e-05,-6e-05,-2e-05,-1e-05,-1e-05,-1e-05,1,30.0
2810,-2e-05,-2e-05,-8e-05,-6e-05,-2e-05,-1e-05,-1e-05,-1e-05,1,30.0
2811,-2e-05,-2e-05,-8e-05,-6e-05,-2e-05,-1e-05,-1e-05,-1e-05,1,30.0
2812,-2e-05,-2e-05,-8e-05,-6e-05,-2e-05,-1e-05,-1e-05,-1e-05,1,30.0
2813,-2e-05,-2e-05,-8e-05,-6e-05,-2e-05,-1e-05,-1e-05,-1e-05,1,30.0
2814,-2e-05,-2e-05,-8e-05,-6e-05,-2e-05,-1e-05,-1e-05,-1e-05,1,30.0
2815,-2e-05,-2e-05,-8e-05,-6e-05,-2e-05,-1e-05,-1e-05,-1e-05,1,30.0
2816,-2e-05,-2e-05,-8e-05,-6e-05,-2e-05,-1e-05,-1e-05,-1e-05,1,30.0
2817,-2e-05,-2e-05,-8e-05,-6e-05,-2e-05,-1e-05,-1e-05,-1e-05,1,30.0
2818,-2e-05,-2e-05,-8e-05,-6e-05,-2e-05,-1e-05,-1e-05,-1e-05,1,30.0
2819,-2e-05,-2e-05,-8e-05,-6e-05,-2e-05,-1e-05,-1e-05,-1e-05,1,30.0
2820,-2e-05,-2e-05,-8e-05,-6e-05,-2e-05,-1e-05,-1e-05,-1e-05,1,30.0
2821,0.0,0.0,-2e-05,3e-05,-1e-05,2e-05,0.0,0.0,1,30.0
2822,-2e-05,-2e-05,-0.00013,0.0,-2e-05,-1e-05,-1e-05,-1e-05,1,30.0
2823,-2e-05,-2e-05,-0.00013,0.0,-2e-05,-1e-05,-1e-05,-1e-05,1,30.0
2824,-2e-05,-2e-05,-0.00013,0.0,-2e-05,-1e-05,-1e-05,-1e-05,1,30.0
2825,-2e-05,-2e-05,-0.00013,0.0,-2e-05,-1e-05,-1e-05,-1e-05,1,30.0
2826,-2e-05,-2e-05,-0.00013,0.0,-2e-05,-1e-05,-1e-05,-1e-05,1,30.0
2827,-2e-05,-2e-05,-0.00013,0.0,-2e-05,-1e-05,-1e-05,-1e-05,1,30.0
2828,-2e-05,-2e-05,-0.00013,0.0,-2e-05,-1e-05,-1e-05,-1e-05,1,30.0
2829,-2e-05,-2e-05,-0.00013,0.0,-2e-05,-1e-05,-1e-05,-1e-05,1,30.0
2830,-2e-05,-2e-05,-0.00013,0.0,-2e-05,-1e-05,-1e-05,-1e-05,1,30.0
2831,-2e-05,-2e-05,-0.00013,0.0,-2e-05,-1e-05,-1e-05,-1e-05,1,30.0
2832,-2e-05,-2e-05,-0.00013,0.0,-2e-05,-1e-05,-1e-05,-1e-05,1,30.0
2833,-2e-05,-2e-05,-0.00013,0.0,-2e-05,-1e-05,-1e-05,-1e-05,1,30.0
2834,-2e-05,-2e-05,-0.00013,0.0,-2e-05,-1e-05,-1e-05,-1e-05,1,30.0
2835,-2e-05,-2e-05,-0.00013,0.0,-2e-05,-1e-05,-1e-05,-1e-05,1,30.0
2836,-1e-05,0.0,-0.00012,0.0,-1e-05,0.0,-1e-05,1e-05,1,30.0
2838,-1e-05,-1e-05,2e-05,-8e-05,-2e-05,0.0,1e-05,1e-05,1,30.0
2839,-1e-05,-1e-05,2e-05,-8e-05,-2e-05,0.0,1e-05,1e-05,1,30.0
2840,-1e-05,-1e-05,2e-05,-8e-05,-2e-05,0.0,1e-05,1e-05,1,30.0
2841,-1e-05,-1e-05,2e-05,-8e-05,-2e-05,0.0,1e-05,1e-05,1,30.0
2842,-1e-05,-1e-05,2e-05,-8e-05,-2e-05,0.0,1e-05,1e-05,1,30.0
2843,-1e-05,-1e-05,2e-05,-8e-05,-2e-05,0.0,1e-05,1e-05,1,30.0
2844,-1e-05,-1e-05,2e-05,-8e-05,-2e-05,0.0,1e-05,1e-05,1,30.0
2845,-1e-05,-1e-05,2e-05,-8e-05,-2e-05,0.0,1e-05,1e-05,1,30.0
2846,-1e-05,-1e-05,2e-05,-8e-05,-2e-05,0.0,1e-05,1e-05,1,30.0
2847,-1e-05,-1e-05,2e-05,-8e-05,-2e-05,0.0,1e-05,1e-05,1,30.0
2848,-1e-05,-1e-05,2e-05,-8e-05,-2e-05,0.0,1e-05,1e-05,1,30.0
2849,-1e-05,-1e-05,2e-05,-8e-05,-2e-05,0.0,1e-05,1e-05,1,30.0
2850,-1e-05,-1e-05,2e-05,-8e-05,-2e-05,0.0,1e-05,1e-05,1,30.0
2851,-1e-05,-1e-05,2e-05,-8e-05,-2e-05,0.0,1e-05,1e-05,1,30.0
2852,-1e-05,-1e-05,2e-05,-8e-05,-2e-05,0.0,1e-05,1e-05,1,30.0
2853,-1e-05,-1e-05,2e-05,-8e-05,-2e-05,0.0,1e-05,1e-05,1,30.0
2854,-1e-05,-1e-05,2e-05,-8e-05,-2e-05,0.0,1e-05,1e-05,1,30.0
2855,-1e-05,-1e-05,2e-05,-8e-05,-2e-05,0.0,1e-05,1e-05,1,30.0
2856,-1e-05,-1e-05,2e-05,-8e-05,-2e-05,0.0,1e-05,1e-05,1,30.0
2857,-1e-05,-1e-05,2e-05,-8e-05,-2e-05,0.0,1e-05,1e-05,1,30.0
2858,0.0,-2e-05,-6e-05,9e-05,7e-05,1e-05,0.0,1e-05,1,30.0
2859,-2e-05,-2e-05,-5e-05,-2e-05,0.0,-2e-05,-2e-05,-1e-05,1,30.0
2860,-2e-05,-2e-05,-5e-05,-2e-05,0.0,-2e-05,-2e-05,-1e-05,1,30.0
2861,-2e-05,-2e-05,-5e-05,-2e-05,0.0,-2e-05,-2e-05,-1e-05,1,30.0
2862,-2e-05,-2e-05,-5e-05,-2e-05,0.0,-2e-05,-2e-05,-1e-05,1,30.0
2864,-2e-05,-2e-05,-5e-05,-2e-05,0.0,-2e-05,-2e-05,-1e-05,1,30.0
2865,-2e-05,-2e-05,-5e-05,-2e-05,0.0,-2e-05,-2e-05,-1e-05,1,30.0
2866,-2e-05,-2e-05,-5e-05,-2e-05,0.0,-2e-05,-2e-05,-1e-05,1,30.0
2867,-2e-05,-2e-05,-5e-05,-2e-05,0.0,-2e-05,-2e-05,-1e-05,1,30.0
2868,-2e-05,-2e-05,-5e-05,-2e-05,0.0,-2e-05,-2e-05,-1e-05,1,30.0
2869,-2e-05,-2e-05,-5e-05,-2e-05,0.0,-2e-05,-2e-05,-1e-05,1,30.0
2870,-2e-05,-2e-05,-5e-05,-2e-05,0.0,-2e-05,-2e-05,-1e-05,1,30.0
2871,-2e-05,-2e-05,-5e-05,-2e-05,0.0,-2e-05,-2e-05,-1e-05,1,30.0
2872,-2e-05,-2e-05,-5e-05,-2e-05,0.0,-2e-05,-2e-05,-1e-05,1,30.0
2873,-2e-05,-2e-05,-5e-05,-2e-05,0.0,-2e-05,-2e-05,-1e-05,1,30.0
2874,-2e-05,-2e-05,-5e-05,-2e-05,0.0,-2e-05,-2e-05,-1e-05,1,30.0
2875,-2e-05,-2e-05,-5e-05,-2e-05,0.0,-2e-05,-2e-05,-1e-05,1,30.0
2876,-2e-05,-2e-05,-5e-05,-2e-05,0.0,-2e-05,-2e-05,-1e-05,1,30.0
2877,-2e-05,-2e-05,-5e-05,-2e-05,0.0,-2e-05,-2e-05,-1e-05,1,30.0
2878,-2e-05,-2e-05,-5e-05,-2e-05,0.0,-2e-05,-2e-05,-1e-05,1,30.0
2879,-2e-05,-2e-05,-5e-05,-2e-05,0.0,-2e-05,-2e-05,-1e-05,1,30.0
2880,-2e-05,-2e-05,-5e-05,-2e-05,0.0,-2e-05,-2e-05,-1e-05,1,30.0
2881,-1e-05,1e-05,-0.0001,0.0,-1e-05,0.0,1e-05,-1e-05,1,30.0
2882,-1e-05,3e-05,4e-05,-7e-05,-2e-05,-2e-05,-2e-05,-2e-05,1,30.0
2883,-1e-05,3e-05,4e-05,-7e-05,-2e-05,-2e-05,-2e-05,-2e-05,1,30.0
2884,-1e-05,3e-05,4e-05,-7e-05,-2e-05,-2e-05,-2e-05,-2e-05,1,30.0
2885,-1e-05,3e-05,4e-05,-7e-05,-2e-05,-2e-05,-2e-05,-2e-05,1,30.0
2886,-1e-05,3e-05,4e-05,-7e-05,-2e-05,-2e-05,-2e-05,-2e-05,1,30.0
2888,-1e-05,3e-05,4e-05,-7e-05,-2e-05,-2e-05,-2e-05,-2e-05,1,30.0
2889,-1e-05,3e-05,4e-05,-7e-05,-2e-05,-2e-05,-2e-05,-2e-05,1,30.0
2890,-1e-05,3e-05,4e-05,-7e-05,-2e-05,-2e-05,-2e-05,-2e-05,1,30.0
2891,-1e-05,3e-05,4e-05,-7e-05,-2e-05,-2e-05,-2e-05,-2e-05,1,30.0
2892,-1e-05,3e-05,4e-05,-7e-05,-2e-05,-2e-05,-2e-05,-2e-05,1,30.0
2893,-1e-05,3e-05,4e-05,-7e-05,-2e-05,-2e-05,-2e-05,-2e-05,1,30.0
2894,-1e-05,3e-05,4e-05,-7e-05,-2e-05,-2e-05,-2e-05,-2e-05,1,30.0
2895,-1e-05,3e-05,4e-05,-7e-05,-2e-05,-2e-05,-2e-05,-2e-05,1,30.0
2896,-1e-05,-3e-05,-1e-05,0.00013,0.0,-1e-05,0.0,0.0,1,30.0
2897,-1e-05,-3e-05,-1e-05,0.00013,0.0,-1e-05,0.0,0.0,1,30.0
2898,-1e-05,-3e-05,-1e-05,0.00013,0.0,-1e-05,0.0,0.0,1,30.0
2899,-1e-05,-3e-05,-1e-05,0.00013,0.0,-1e-05,0.0,0.0,1,30.0
2900,-1e-05,-3e-05,-1e-05,0.00013,0.0,-1e-05,0.0,0.0,1,30.0
2901,-1e-05,-3e-05,-1e-05,0.00013,0.0,-1e-05,0.0,0.0,1,30.0
2902,-1e-05,-3e-05,-1e-05,0.00013,0.0,-1e-05,0.0,0.0,1,30.0
2903,-1e-05,-3e-05,-1e-05,0.00013,0.0,-1e-05,0.0,0.0,1,30.0
2904,-1e-05,-3e-05,-1e-05,0.00013,0.0,-1e-05,0.0,0.0,1,30.0
2905,-1e-05,-3e-05,-1e-05,0.00013,0.0,-1e-05,0.0,0.0,1,30.0
2906,-1e-05,-3e-05,-1e-05,0.00013,0.0,-1e-05,0.0,0.0,1,30.0
2907,-1e-05,-3e-05,-1e-05,0.00013,0.0,-1e-05,0.0,0.0,1,30.0
2908,-1e-05,-3e-05,-1e-05,0.00013,0.0,-1e-05,0.0,0.0,1,30.0
2909,-1e-05,-3e-05,-1e-05,0.00013,0.0,-1e-05,0.0,0.0,1,30.0
2910,-1e-05,-3e-05,-1e-05,0.00013,0.0,-1e-05,0.0,0.0,1,30.0
2911,1e-05,0.0,-5e-05,5e-05,-1e-05,-1e-05,-2e-05,-1e-05,1,30.0
2912,1e-05,0.0,-5e-05,5e-05,-1e-05,-1e-05,-2e-05,-1e-05,1,30.0
2913,1e-05,0.0,-5e-05,5e-05,-1e-05,-1e-05,-2e-05,-1e-05,1,30.0
2914,1e-05,0.0,-5e-05,5e-05,-1e-05,-1e-05,-2e-05,-1e-05,1,30.0
2915,1e-05,0.0,-5e-05,5e-05,-1e-05,-1e-05,-2e-05,-1e-05,1,30.0
2916,1e-05,0.0,-5e-05,5e-05,-1e-05,-1e-05,-2e-05,-1e-05,1,30.0
2917,1e-05,0.0,-5e-05,5e-05,-1e-05,-1e-05,-2e-05,-1e-05,1,30.0
2918,1e-05,1e-05,4e-05,-2e-05,0.0,0.0,0.0,-1e-05,1,30.0
2919,0.0,-2e-05,0.0001,-5e-05,-1e-05,-2e-05,-2e-05,0.0,1,30.0
2920,0.0,-2e-05,0.0001,-5e-05,-1e-05,-2e-05,-2e-05,0.0,1,30.0
2921,0.0,-2e-05,0.0001,-5e-05,-1e-05,-2e-05,-2e-05,0.0,1,30.0
2922,0.0,-2e-05,0.0001,-5e-05,-1e-05,-2e-05,-2e-05,0.0,1,30.0
2923,0.0,-2e-05,0.0001,-5e-05,-1e-05,-2e-05,-2e-05,0.0,1,30.0
2924,0.0,-2e-05,0.0001,-5e-05,-1e-05,-2e-05,-2e-05,0.0,1,30.0
2925,0.0,-2e-05,0.0001,-5e-05,-1e-05,-2e-05,-2e-05,0.0,1,30.0
2926,0.0,-2e-05,0.0001,-5e-05,-1e-05,-2e-05,-2e-05,0.0,1,30.0
2927,0.0,-2e-05,0.0001,-5e-05,-1e-05,-2e-05,-2e-05,0.0,1,30.0
2928,0.0,-2e-05,0.0001,-5e-05,-1e-05,-2e-05,-2e-05,0.0,1,30.0
2929,0.0,-2e-05,0.0001,-5e-05,-1e-05,-2e-05,-2e-05,0.0,1,30.0
2930,0.0,-2e-05,0.0001,-5e-05,-1e-05,-2e-05,-2e-05,0.0,1,30.0
2931,0.0,-2e-05,0.0001,-5e-05,-1e-05,-2e-05,-2e-05,0.0,1,30.0
2932,0.0,-2e-05,0.0001,-5e-05,-1e-05,-2e-05,-2e-05,0.0,1,30.0
2933,0.0,-2e-05,0.0001,-5e-05,-1e-05,-2e-05,-2e-05,0.0,1,30.0
2934,0.0,-2e-05,0.0001,-5e-05,-1e-05,-2e-05,-2e-05,0.0,1,30.0
2935,0.0,-2e-05,0.0001,-5e-05,-1e-05,-2e-05,-2e-05,0.0,1,30.0
2936,0.0,-2e-05,0.0001,-5e-05,-1e-05,-2e-05,-2e-05,0.0,1,30.0
2938,0.0,-2e-05,0.0001,-5e-05,-1e-05,-2e-05,-2e-05,0.0,1,30.0
2939,0.0,-2e-05,0.0001,-5e-05,-1e-05,-2e-05,-2e-05,0.0,1,30.0
2940,0.0,-2e-05,0.0001,-5e-05,-1e-05,-2e-05,-2e-05,0.0,1,30.0
2941,0.0,-1e-05,-5e-05,-5e-05,-3e-05,1e-05,-2e-05,-1e-05,1,30.0
2942,1e-05,-3e-05,-5e-05,-2e-05,-1e-05,-1e-05,-1e-05,-1e-05,1,30.0
2943,1e-05,-3e-05,-5e-05,-2e-05,-1e-05,-1e-05,-1e-05,-1e-05,1,30.0
2944,1e-05,-3e-05,-5e-05,-2e-05,-1e-05,-1e-05,-1e-05,-1e-05,1,30.0
2945,1e-05,-3e-05,-5e-05,-2e-05,-1e-05,-1e-05,-1e-05,-1e-05,1,30.0
2946,1e-05,-3e-05,-5e-05,-2e-05,-1e-05,-1e-05,-1e-05,-1e-05,1,30.0
2947,1e-05,-3e-05,-5e-05,-2e-05,-1e-05,-1e-05,-1e-05,-1e-05,1,30.0
2948,1e-05,-3e-05,-5e-05,-2e-05,-1e-05,-1e-05,-1e-05,-1e-05,1,30.0
2949,1e-05,-3e-05,-5e-05,-2e-05,-1e-05,-1e-05,-1e-05,-1e-05,1,30.0
2950,1e-05,-3e-05,-5e-05,-2e-05,-1e-05,-1e-05,-1e-05,-1e-05,1,30.0
2951,1e-05,-3e-05,-5e-05,-2e-05,-1e-05,-1e-05,-1e-05,-1e-05,1,30.0
2952,1e-05,-3e-05,-5e-05,-2e-05,-1e-05,-1e-05,-1e-05,-1e-05,1,30.0
2953,1e-05,-3e-05,-5e-05,-2e-05,-1e-05,-1e-05,-1e-05,-1e-05,1,30.0
2955,-1e-05,0.0,0.0,-5e-05,-1e-05,-1e-05,-2e-05,-1e-05,1,30.0
2956,-1e-05,0.0,0.0,-5e-05,-1e-05,-1e-05,-2e-05,-1e-05,1,30.0
2957,-1e-05,0.0,0.0,-5e-05,-1e-05,-1e-05,-2e-05,-1e-05,1,30.0
2958,-1e-05,0.0,0.0,-5e-05,-1e-05,-1e-05,-2e-05,-1e-05,1,30.0
2959,-1e-05,0.0,0.0,-5e-05,-1e-05,-1e-05,-2e-05,-1e-05,1,30.0
2960,-1e-05,0.0,0.0,-5e-05,-1e-05,-1e-05,-2e-05,-1e-05,1,30.0
2961,-1e-05,0.0,0.0,-5e-05,-1e-05,-1e-05,-2e-05,-1e-05,1,30.0
2962,-1e-05,0.0,0.0,-5e-05,-1e-05,-1e-05,-2e-05,-1e-05,1,30.0
2963,-1e-05,0.0,0.0,-5e-05,-1e-05,-1e-05,-2e-05,-1e-05,1,30.0
2964,-1e-05,0.0,3e-05,-6e-05,-6e-05,-3e-05,-2e-05,-1e-05,1,30.0
2965,-2e-05,-1e-05,-6e-05,3e-05,9e-05,2e-05,1e-05,-1e-05,1,30.0
2966,-2e-05,-1e-05,-6e-05,3e-05,9e-05,2e-05,1e-05,-1e-05,1,30.0
2967,-2e-05,-1e-05,-6e-05,3e-05,9e-05,2e-05,1e-05,-1e-05,1,30.0
2968,-2e-05,-1e-05,-6e-05,3e-05,9e-05,2e-05,1e-05,-1e-05,1,30.0
2969,-2e-05,-1e-05,-6e-05,3e-05,9e-05,2e-05,1e-05,-1e-05,1,30.0
2970,-2e-05,-1e-05,-6e-05,3e-05,9e-05,2e-05,1e-05,-1e-05,1,30.0
2971,-2e-05,-1e-05,-6e-05,3e-05,9e-05,2e-05,1e-05,-1e-05,1,30.0
2972,-2e-05,-1e-05,-6e-05,3e-05,9e-05,2e-05,1e-05,-1e-05,1,30.0
2973,-2e-05,-1e-05,-6e-05,3e-05,9e-05,2e-05,1e-05,-1e-05,1,30.0
2974,-2e-05,-1e-05,-6e-05,3e-05,9e-05,2e-05,1e-05,-1e-05,1,30.0
2975,-2e-05,-1e-05,-6e-05,3e-05,9e-05,2e-05,1e-05,-1e-05,1,30.0
2976,-2e-05,-1e-05,-6e-05,3e-05,9e-05,2e-05,1e-05,-1e-05,1,30.0
2977,-2e-05,-1e-05,-6e-05,3e-05,9e-05,2e-05,1e-05,-1e-05,1,30.0
2978,-2e-05,-1e-05,-6e-05,3e-05,9e-05,2e-05,1e-05,-1e-05,1,30.0
2979,0.0,1e-05,0.00014,4e-05,-4e-05,-2e-05,0.0,-2e-05,1,30.0
2980,-1e-05,-2e-05,-5e-05,-1e-05,-3e-05,-1e-05,-3e-05,-2e-05,1,30.0
2981,-1e-05,-2e-05,-5e-05,-1e-05,-3e-05,-1e-05,-3e-05,-2e-05,1,30.0
2982,-1e-05,-2e-05,-5e-05,-1e-05,-3e-05,-1e-05,-3e-05,-2e-05,1,30.0
2983,-1e-05,-2e-05,-5e-05,-1e-05,-3e-05,-1e-05,-3e-05,-2e-05,1,30.0
2984,-1e-05,-2e-05,-5e-05,-1e-05,-3e-05,-1e-05,-3e-05,-2e-05,1,30.0
2985,-1e-05,-2e-05,-5e-05,-1e-05,-3e-05,-1e-05,-3e-05,-2e-05,1,30.0
2986,-1e-05,-2e-05,-5e-05,-1e-05,-3e-05,-1e-05,-3e-05,-2e-05,1,30.0
2988,-1e-05,-2e-05,-5e-05,-1e-05,-3e-05,-1e-05,-3e-05,-2e-05,1,30.0
2989,-1e-05,-2e-05,-5e-05,-1e-05,-3e-05,-1e-05,-3e-05,-2e-05,1,30.0
2990,-1e-05,-2e-05,-5e-05,-1e-05,-3e-05,-1e-05,-3e-05,-2e-05,1,30.0
2991,-1e-05,-2e-05,-5e-05,-1e-05,-3e-05,-1e-05,-3e-05,-2e-05,1,30.0
2992,-1e-05,-2e-05,-5e-05,-1e-05,-3e-05,-1e-05,-3e-05,-2e-05,1,30.0
2993,-1e-05,-2e-05,-5e-05,-1e-05,-3e-05,-1e-05,-3e-05,-2e-05,1,30.0
2994,-1e-05,-2e-05,-5e-05,-1e-05,-3e-05,-1e-05,-3e-05,-2e-05,1,30.0
2995,-1e-05,-2e-05,-5e-05,-1e-05,-3e-05,-1e-05,-3e-05,-2e-05,1,30.0
2996,-1e-05,-2e-05,-5e-05,-1e-05,-3e-05,-1e-05,-3e-05,-2e-05,1,30.0
2997,-1e-05,-2e-05,-5e-05,-1e-05,-3e-05,-1e-05,-3e-05,-2e-05,1,30.0
2998,-1e-05,-2e-05,-5e-05,-1e-05,-3e-05,-1e-05,-3e-05,-2e-05,1,30.0
2999,-1e-05,-2e-05,-5e-05,-1e-05,-3e-05,-1e-05,-3e-05,-2e-05,1,30.0
3000,-1e-05,-2e-05,-5e-05,-1e-05,-3e-05,-1e-05,-3e-05,-2e-05,1,30.0
3001,-3e-05,-6e-05,-4e-05,-8e-05,-1e-05,-1e-05,-2e-05,-2e-05,1,30.0
3002,-1e-05,1e-05,5e-05,-0.00012,-3e-05,0.0,0.0,-1e-05,1,30.0
3003,-1e-05,1e-05,5e-05,-0.00012,-3e-05,0.0,0.0,-1e-05,1,30.0
3004,-1e-05,1e-05,5e-05,-0.00012,-3e-05,0.0,0.0,-1e-05,1,30.0
3005,-1e-05,1e-05,5e-05,-0.00012,-3e-05,0.0,0.0,-1e-05,1,30.0
3006,-1e-05,1e-05,5e-05,-0.00012,-3e-05,0.0,0.0,-1e-05,1,30.0
3007,-1e-05,1e-05,5e-05,-0.00012,-3e-05,0.0,0.0,-1e-05,1,30.0
3008,-1e-05,1e-05,5e-05,-0.00012,-3e-05,0.0,0.0,-1e-05,1,30.0
3009,-1e-05,1e-05,5e-05,-0.00012,-3e-05,0.0,0.0,-1e-05,1,30.0
3010,-1e-05,1e-05,5e-05,-0.00012,-3e-05,0.0,0.0,-1e-05,1,30.0
3011,-1e-05,1e-05,5e-05,-0.00012,-3e-05,0.0,0.0,-1e-05,1,30.0
3012,-1e-05,1e-05,5e-05,-0.00012,-3e-05,0.0,0.0,-1e-05,1,30.0
3013,-1e-05,1e-05,5e-05,-0.00012,-3e-05,0.0,0.0,-1e-05,1,30.0
3014,-1e-05,1e-05,5e-05,-0.00012,-3e-05,0.0,0.0,-1e-05,1,30.0
3015,-1e-05,-1e-05,-3e-05,-1e-05,-2e-05,-1e-05,0.0,-1e-05,1,30.0
3016,-1e-05,-1e-05,-3e-05,-1e-05,-2e-05,-1e-05,0.0,-1e-05,1,30.0
3017,-1e-05,-1e-05,-3e-05,-1e-05,-2e-05,-1e-05,0.0,-1e-05,1,30.0
3018,-1e-05,-1e-05,-3e-05,-1e-05,-2e-05,-1e-05,0.0,-1e-05,1,30.0
3019,-1e-05,-1e-05,-3e-05,-1e-05,-2e-05,-1e-05,0.0,-1e-05,1,30.0
3020,-1e-05,-1e-05,-3e-05,-1e-05,-2e-05,-1e-05,0.0,-1e-05,1,30.0
3021,-1e-05,-1e-05,-3e-05,-1e-05,-2e-05,-1e-05,0.0,-1e-05,1,30.0
3022,-1e-05,-1e-05,-3e-05,-1e-05,-2e-05,-1e-05,0.0,-1e-05,1,30.0
3023,-1e-05,-1e-05,0.00012,9e-05,1e-05,-1e-05,-2e-05,-2e-05,1,30.0
3024,-2e-05,-1e-05,-9e-05,-0.00022,-3e-05,-3e-05,-1e-05,0.0,1,30.0
3025,-2e-05,-1e-05,-9e-05,-0.00022,-3e-05,-3e-05,-1e-05,0.0,1,30.0
3026,-2e-05,-1e-05,-9e-05,-0.00022,-3e-05,-3e-05,-1e-05,0.0,1,30.0
3027,-2e-05,-1e-05,-9e-05,-0.00022,-3e-05,-3e-05,-1e-05,0.0,1,30.0
3028,-2e-05,-1e-05,-9e-05,-0.00022,-3e-05,-3e-05,-1e-05,0.0,1,30.0
3029,-2e-05,-1e-05,-9e-05,-0.00022,-3e-05,-3e-05,-1e-05,0.0,1,30.0
3030,-2e-05,-1e-05,-9e-05,-0.00022,-3e-05,-3e-05,-1e-05,0.0,1,30.0
3031,-2e-05,-1e-05,-9e-05,-0.00022,-3e-05,-3e-05,-1e-05,0.0,1,30.0
3032,-2e-05,-1e-05,-9e-05,-0.00022,-3e-05,-3e-05,-1e-05,0.0,1,30.0
3033,-2e-05,-1e-05,-9e-05,-0.00022,-3e-05,-3e-05,-1e-05,0.0,1,30.0
3034,-2e-05,-1e-05,-9e-05,-0.00022,-3e-05,-3e-05,-1e-05,0.0,1,30.0
3035,-2e-05,-1e-05,-9e-05,-0.00022,-3e-05,-3e-05,-1e-05,0.0,1,30.0
3036,-2e-05,-1e-05,-9e-05,-0.00022,-3e-05,-3e-05,-1e-05,0.0,1,30.0
3038,-2e-05,-2e-05,0.0,0.0,-2e-05,0.0,-1e-05,0.0,1,30.0
3039,0.0,-4e-05,2e-05,0.00011,0.0,-1e-05,-1e-05,-1e-05,1,30.0
3040,0.0,-4e-05,2e-05,0.00011,0.0,-1e-05,-1e-05,-1e-05,1,30.0
3041,0.0,-4e-05,2e-05,0.00011,0.0,-1e-05,-1e-05,-1e-05,1,30.0
3042,0.0,-4e-05,2e-05,0.00011,0.0,-1e-05,-1e-05,-1e-05,1,30.0
3043,0.0,-4e-05,2e-05,0.00011,0.0,-1e-05,-1e-05,-1e-05,1,30.0
3044,0.0,-4e-05,2e-05,0.00011,0.0,-1e-05,-1e-05,-1e-05,1,30.0
3045,0.0,-4e-05,2e-05,0.00011,0.0,-1e-05,-1e-05,-1e-05,1,30.0
3046,0.0,-4e-05,2e-05,0.00011,0.0,-1e-05,-1e-05,-1e-05,1,30.0
3047,0.0,-4e-05,2e-05,0.00011,0.0,-1e-05,-1e-05,-1e-05,1,30.0
3048,0.0,-4e-05,2e-05,0.00011,0.0,-1e-05,-1e-05,-1e-05,1,30.0
3049,0.0,-4e-05,2e-05,0.00011,0.0,-1e-05,-1e-05,-1e-05,1,30.0
3050,0.0,-4e-05,2e-05,0.00011,0.0,-1e-05,-1e-05,-1e-05,1,30.0
3051,0.0,-4e-05,2e-05,0.00011,0.0,-1e-05,-1e-05,-1e-05,1,30.0
3052,0.0,-4e-05,2e-05,0.00011,0.0,-1e-05,-1e-05,-1e-05,1,30.0
3053,0.0,-4e-05,2e-05,0.00011,0.0,-1e-05,-1e-05,-1e-05,1,30.0
3054,0.0,-4e-05,2e-05,0.00011,0.0,-1e-05,-1e-05,-1e-05,1,30.0
3055,0.0,-4e-05,2e-05,0.00011,0.0,-1e-05,-1e-05,-1e-05,1,30.0
3056,0.0,-4e-05,2e-05,0.00011,0.0,-1e-05,-1e-05,-1e-05,1,30.0
3057,0.0,-4e-05,2e-05,0.00011,0.0,-1e-05,-1e-05,-1e-05,1,30.0
3058,0.0,-4e-05,2e-05,0.00011,0.0,-1e-05,-1e-05,-1e-05,1,30.0
3059,0.0,-4e-05,2e-05,0.00011,0.0,-1e-05,-1e-05,-1e-05,1,30.0
3060,0.0,-4e-05,2e-05,0.00011,0.0,-1e-05,-1e-05,-1e-05,1,30.0
3061,0.0,2e-05,-1e-05,4e-05,-6e-05,-2e-05,-1e-05,-1e-05,1,30.0
3062,-2e-05,-4e-05,-0.00067,1e-05,-1e-05,-1e-05,0.0,-1e-05,1,30.0
3063,-2e-05,-4e-05,-0.00067,1e-05,-1e-05,-1e-05,0.0,-1e-05,1,30.0
3064,-2e-05,-4e-05,-0.00067,1e-05,-1e-05,-1e-05,0.0,-1e-05,1,30.0
3065,-2e-05,-4e-05,-0.00067,1e-05,-1e-05,-1e-05,0.0,-1e-05,1,30.0
3066,-2e-05,-4e-05,-0.00067,1e-05,-1e-05,-1e-05,0.0,-1e-05,1,30.0
3067,-2e-05,-4e-05,-0.00067,1e-05,-1e-05,-1e-05,0.0,-1e-05,1,30.0
3068,-2e-05,-4e-05,-0.00067,1e-05,-1e-05,-1e-05,0.0,-1e-05,1,30.0
3069,-2e-05,-4e-05,-0.00067,1e-05,-1e-05,-1e-05,0.0,-1e-05,1,30.0
3070,-2e-05,-4e-05,-0.00067,1e-05,-1e-05,-1e-05,0.0,-1e-05,1,30.0
3071,-2e-05,-4e-05,-0.00067,1e-05,-1e-05,-1e-05,0.0,-1e-05,1,30.0
3072,-2e-05,-4e-05,-0.00067,1e-05,-1e-05,-1e-05,0.0,-1e-05,1,30.0
3073,-2e-05,-4e-05,-0.00067,1e-05,-1e-05,-1e-05,0.0,-1e-05,1,30.0
3074,-2e-05,-4e-05,-0.00067,1e-05,-1e-05,-1e-05,0.0,-1e-05,1,30.0
3075,-2e-05,-2e-05,3e-05,0.0,-3e-05,-4e-05,-1e-05,-1e-05,1,30.0
3076,-2e-05,-2e-05,3e-05,0.0,-3e-05,-4e-05,-1e-05,-1e-05,1,30.0
3077,-2e-05,-2e-05,3e-05,0.0,-3e-05,-4e-05,-1e-05,-1e-05,1,30.0
3078,-2e-05,-2e-05,3e-05,0.0,-3e-05,-4e-05,-1e-05,-1e-05,1,30.0
3079,-2e-05,-2e-05,3e-05,0.0,-3e-05,-4e-05,-1e-05,-1e-05,1,30.0
3080,-2e-05,-2e-05,3e-05,0.0,-3e-05,-4e-05,-1e-05,-1e-05,1,30.0
3081,-2e-05,-2e-05,3e-05,0.0,-3e-05,-4e-05,-1e-05,-1e-05,1,30.0
3082,-2e-05,-2e-05,3e-05,0.0,-3e-05,-4e-05,-1e-05,-1e-05,1,30.0
3083,-2e-05,-2e-05,3e-05,0.0,-3e-05,-4e-05,-1e-05,-1e-05,1,30.0
3084,0.0,4e-05,0.0002,0.00011,-1e-05,0.0,-2e-05,0.0,1,30.0
3085,0.0,4e-05,0.0002,0.00011,-1e-05,0.0,-2e-05,0.0,1,30.0
3086,0.0,4e-05,0.0002,0.00011,-1e-05,0.0,-2e-05,0.0,1,30.0
3088,0.0,4e-05,0.0002,0.00011,-1e-05,0.0,-2e-05,0.0,1,30.0
3089,0.0,4e-05,0.0002,0.00011,-1e-05,0.0,-2e-05,0.0,1,30.0
3090,0.0,4e-05,0.0002,0.00011,-1e-05,0.0,-2e-05,0.0,1,30.0
3091,0.0,4e-05,0.0002,0.00011,-1e-05,0.0,-2e-05,0.0,1,30.0
3092,0.0,4e-05,0.0002,0.00011,-1e-05,0.0,-2e-05,0.0,1,30.0
3093,0.0,4e-05,0.0002,0.00011,-1e-05,0.0,-2e-05,0.0,1,30.0
3094,0.0,4e-05,0.0002,0.00011,-1e-05,0.0,-2e-05,0.0,1,30.0
3095,0.0,4e-05,0.0002,0.00011,-1e-05,0.0,-2e-05,0.0,1,30.0
3096,0.0,4e-05,0.0002,0.00011,-1e-05,0.0,-2e-05,0.0,1,30.0
3097,0.0,4e-05,0.0002,0.00011,-1e-05,0.0,-2e-05,0.0,1,30.0
3098,0.0,4e-05,0.0002,0.00011,-1e-05,0.0,-2e-05,0.0,1,30.0
3099,-1e-05,0.0,0.00011,5e-05,-3e-05,-2e-05,-2e-05,-3e-05,1,30.0
3100,-1e-05,0.0,0.00011,5e-05,-3e-05,-2e-05,-2e-05,-3e-05,1,30.0
3101,-1e-05,0.0,0.00011,5e-05,-3e-05,-2e-05,-2e-05,-3e-05,1,30.0
3102,-1e-05,0.0,0.00011,5e-05,-3e-05,-2e-05,-2e-05,-3e-05,1,30.0
3103,-1e-05,0.0,0.00011,5e-05,-3e-05,-2e-05,-2e-05,-3e-05,1,30.0
3104,-1e-05,0.0,0.00011,5e-05,-3e-05,-2e-05,-2e-05,-3e-05,1,30.0
3105,-1e-05,0.0,0.00011,5e-05,-3e-05,-2e-05,-2e-05,-3e-05,1,30.0
3106,-1e-05,0.0,0.00011,5e-05,-3e-05,-2e-05,-2e-05,-3e-05,1,30.0
3107,-1e-05,0.0,0.00011,5e-05,-3e-05,-2e-05,-2e-05,-3e-05,1,30.0
3108,-1e-05,0.0,0.00011,5e-05,-3e-05,-2e-05,-2e-05,-3e-05,1,30.0
3109,-1e-05,0.0,0.00011,5e-05,-3e-05,-2e-05,-2e-05,-3e-05,1,30.0
3110,-1e-05,0.0,0.00011,5e-05,-3e-05,-2e-05,-2e-05,-3e-05,1,30.0
3111,-1e-05,0.0,0.00011,5e-05,-3e-05,-2e-05,-2e-05,-3e-05,1,30.0
3112,-1e-05,0.0,0.00011,5e-05,-3e-05,-2e-05,-2e-05,-3e-05,1,30.0
3113,-1e-05,0.0,0.00011,5e-05,-3e-05,-2e-05,-2e-05,-3e-05,1,30.0
3114,-1e-05,0.0,0.00011,5e-05,-3e-05,-2e-05,-2e-05,-3e-05,1,30.0
3115,-1e-05,0.0,0.00011,5e-05,-3e-05,-2e-05,-2e-05,-3e-05,1,30.0
3116,-1e-05,0.0,0.00011,5e-05,-3e-05,-2e-05,-2e-05,-3e-05,1,30.0
3118,-1e-05,0.0,0.00011,5e-05,-3e-05,-2e-05,-2e-05,-3e-05,1,30.0
3119,-1e-05,0.0,0.00011,5e-05,-3e-05,-2e-05,-2e-05,-3e-05,1,30.0
3120,-1e-05,0.0,0.00011,5e-05,-3e-05,-2e-05,-2e-05,-3e-05,1,30.0
3121,-1e-05,0.0,0.00011,5e-05,-3e-05,-2e-05,-2e-05,-3e-05,1,30.0
3122,0.0,0.0,4e-05,-0.00011,0.0,-1e-05,0.0,-1e-05,1,30.0
3123,0.0,0.0,0.00012,0.0002,-2e-05,0.0,0.0,-1e-05,1,30.0
3124,0.0,0.0,0.00012,0.0002,-2e-05,0.0,0.0,-1e-05,1,30.0
3125,0.0,0.0,0.00012,0.0002,-2e-05,0.0,0.0,-1e-05,1,30.0
3126,0.0,0.0,0.00012,0.0002,-2e-05,0.0,0.0,-1e-05,1,30.0
3127,0.0,0.0,0.00012,0.0002,-2e-05,0.0,0.0,-1e-05,1,30.0
3128,0.0,0.0,0.00012,0.0002,-2e-05,0.0,0.0,-1e-05,1,30.0
3129,0.0,0.0,0.00012,0.0002,-2e-05,0.0,0.0,-1e-05,1,30.0
3130,0.0,0.0,0.00012,0.0002,-2e-05,0.0,0.0,-1e-05,1,30.0
3131,0.0,0.0,0.00012,0.0002,-2e-05,0.0,0.0,-1e-05,1,30.0
3132,0.0,0.0,0.00012,0.0002,-2e-05,0.0,0.0,-1e-05,1,30.0
3133,0.0,0.0,0.00012,0.0002,-2e-05,0.0,0.0,-1e-05,1,30.0
3134,0.0,0.0,0.00012,0.0002,-2e-05,0.0,0.0,-1e-05,1,30.0
3135,0.0,0.0,0.00012,0.0002,-2e-05,0.0,0.0,-1e-05,1,30.0
3136,0.0,0.0,-1e-05,-0.00016,1e-05,0.0,-2e-05,-1e-05,1,30.0
3138,0.0,-1e-05,-3e-05,0.0,-3e-05,0.0,-1e-05,0.0,1,30.0
3139,0.0,-1e-05,-3e-05,0.0,-3e-05,0.0,-1e-05,0.0,1,30.0
3140,0.0,-1e-05,-3e-05,0.0,-3e-05,0.0,-1e-05,0.0,1,30.0
3141,0.0,-1e-05,-3e-05,0.0,-3e-05,0.0,-1e-05,0.0,1,30.0
3142,0.0,-1e-05,-3e-05,0.0,-3e-05,0.0,-1e-05,0.0,1,30.0
3143,0.0,-1e-05,-3e-05,0.0,-3e-05,0.0,-1e-05,0.0,1,30.0
3144,0.0,-1e-05,-3e-05,0.0,-3e-05,0.0,-1e-05,0.0,1,30.0
3145,0.0,-1e-05,1e-05,-3e-05,-2e-05,-1e-05,0.0,0.0,1,30.0
3146,0.0,-1e-05,1e-05,-3e-05,-2e-05,-1e-05,0.0,0.0,1,30.0
3147,0.0,-1e-05,1e-05,-3e-05,-2e-05,-1e-05,0.0,0.0,1,30.0
3148,0.0,-1e-05,1e-05,-3e-05,-2e-05,-1e-05,0.0,0.0,1,30.0
3149,0.0,-1e-05,1e-05,-3e-05,-2e-05,-1e-05,0.0,0.0,1,30.0
3150,0.0,-1e-05,1e-05,-3e-05,-2e-05,-1e-05,0.0,0.0,1,30.0
3151,0.0,-1e-05,1e-05,-3e-05,-2e-05,-1e-05,0.0,0.0,1,30.0
3152,0.0,-1e-05,1e-05,-3e-05,-2e-05,-1e-05,0.0,0.0,1,30.0
3153,0.0,-1e-05,1e-05,-3e-05,-2e-05,-1e-05,0.0,0.0,1,30.0
3154,0.0,-1e-05,1e-05,-3e-05,-2e-05,-1e-05,0.0,0.0,1,30.0
3155,0.0,-1e-05,1e-05,-3e-05,-2e-05,-1e-05,0.0,0.0,1,30.0
3156,0.0,-1e-05,1e-05,-3e-05,-2e-05,-1e-05,0.0,0.0,1,30.0
3157,0.0,-1e-05,1e-05,-3e-05,-2e-05,-1e-05,0.0,0.0,1,30.0
3158,0.0,-1e-05,1e-05,-3e-05,-2e-05,-1e-05,0.0,0.0,1,30.0
3159,1e-05,2e-05,8e-05,2e-05,-4e-05,0.0,-1e-05,-2e-05,1,30.0
3160,0.0,-1e-05,9e-05,-3e-05,0.0,-2e-05,-1e-05,-2e-05,1,30.0
3161,0.0,-1e-05,9e-05,-3e-05,0.0,-2e-05,-1e-05,-2e-05,1,30.0
3162,0.0,-1e-05,9e-05,-3e-05,0.0,-2e-05,-1e-05,-2e-05,1,30.0
3163,0.0,-1e-05,9e-05,-3e-05,0.0,-2e-05,-1e-05,-2e-05,1,30.0
3164,0.0,-1e-05,9e-05,-3e-05,0.0,-2e-05,-1e-05,-2e-05,1,30.0
3165,0.0,-1e-05,9e-05,-3e-05,0.0,-2e-05,-1e-05,-2e-05,1,30.0
3166,0.0,-1e-05,9e-05,-3e-05,0.0,-2e-05,-1e-05,-2e-05,1,30.0
3167,0.0,-1e-05,9e-05,-3e-05,0.0,-2e-05,-1e-05,-2e-05,1,30.0
3168,0.0,-1e-05,9e-05,-3e-05,0.0,-2e-05,-1e-05,-2e-05,1,30.0
3169,0.0,-1e-05,9e-05,-3e-05,0.0,-2e-05,-1e-05,-2e-05,1,30.0
3170,0.0,-1e-05,9e-05,-3e-05,0.0,-2e-05,-1e-05,-2e-05,1,30.0
3171,0.0,-1e-05,9e-05,-3e-05,0.0,-2e-05,-1e-05,-2e-05,1,30.0
3172,0.0,-1e-05,9e-05,-3e-05,0.0,-2e-05,-1e-05,-2e-05,1,30.0
3173,0.0,-1e-05,9e-05,-3e-05,0.0,-2e-05,-1e-05,-2e-05,1,30.0
3174,0.0,-1e-05,9e-05,-3e-05,0.0,-2e-05,-1e-05,-2e-05,1,30.0
3175,0.0,-1e-05,9e-05,-3e-05,0.0,-2e-05,-1e-05,-2e-05,1,30.0
3176,0.0,-1e-05,9e-05,-3e-05,0.0,-2e-05,-1e-05,-2e-05,1,30.0
3177,0.0,-1e-05,9e-05,-3e-05,0.0,-2e-05,-1e-05,-2e-05,1,30.0
3178,0.0,-1e-05,9e-05,-3e-05,0.0,-2e-05,-1e-05,-2e-05,1,30.0
3179,0.0,-1e-05,9e-05,-3e-05,0.0,-2e-05,-1e-05,-2e-05,1,30.0
3180,0.0,-1e-05,9e-05,-3e-05,0.0,-2e-05,-1e-05,-2e-05,1,30.0
3181,0.0,-1e-05,9e-05,-3e-05,0.0,-2e-05,-1e-05,-2e-05,1,30.0
3182,0.0,-2e-05,-2e-05,-4e-05,-2e-05,1e-05,-2e-05,-1e-05,1,30.0
3183,-1e-05,0.0,4e-05,-0.00016,-4e-05,0.0,-2e-05,-2e-05,1,30.0
3184,-1e-05,0.0,4e-05,-0.00016,-4e-05,0.0,-2e-05,-2e-05,1,30.0
3185,-1e-05,0.0,4e-05,-0.00016,-4e-05,0.0,-2e-05,-2e-05,1,30.0
3186,-1e-05,0.0,4e-05,-0.00016,-4e-05,0.0,-2e-05,-2e-05,1,30.0
3188,-1e-05,0.0,4e-05,-0.00016,-4e-05,0.0,-2e-05,-2e-05,1,30.0
3189,-1e-05,0.0,4e-05,-0.00016,-4e-05,0.0,-2e-05,-2e-05,1,30.0
3190,-1e-05,0.0,4e-05,-0.00016,-4e-05,0.0,-2e-05,-2e-05,1,30.0
3191,-1e-05,0.0,4e-05,-0.00016,-4e-05,0.0,-2e-05,-2e-05,1,30.0
3192,-1e-05,0.0,4e-05,-0.00016,-4e-05,0.0,-2e-05,-2e-05,1,30.0
3193,-1e-05,0.0,4e-05,-0.00016,-4e-05,0.0,-2e-05,-2e-05,1,30.0
3194,-1e-05,0.0,4e-05,-0.00016,-4e-05,0.0,-2e-05,-2e-05,1,30.0
3195,-1e-05,0.0,4e-05,-0.00016,-4e-05,0.0,-2e-05,-2e-05,1,30.0
3196,0.0,-1e-05,-2e-05,1e-05,2e-05,0.0,-1e-05,0.0,1,30.0
3197,-1e-05,-3e-05,-1e-05,-1e-05,1e-05,-3e-05,-2e-05,0.0,1,30.0
3198,-1e-05,-3e-05,-1e-05,-1e-05,1e-05,-3e-05,-2e-05,0.0,1,30.0
3199,-1e-05,-3e-05,-1e-05,-1e-05,1e-05,-3e-05,-2e-05,0.0,1,30.0
3200,-1e-05,-3e-05,-1e-05,-1e-05,1e-05,-3e-05,-2e-05,0.0,1,30.0
3201,-1e-05,-3e-05,-1e-05,-1e-05,1e-05,-3e-05,-2e-05,0.0,1,30.0
3202,-1e-05,-3e-05,-1e-05,-1e-05,1e-05,-3e-05,-2e-05,0.0,1,30.0
3203,-1e-05,-3e-05,-1e-05,-1e-05,1e-05,-3e-05,-2e-05,0.0,1,30.0
3204,1e-05,0.0,0.0,-2e-05,1e-05,0.0,-1e-05,0.0,1,30.0
3205,-1e-05,-1e-05,1e-05,1e-05,-1e-05,0.0,0.0,0.0,1,30.0
3206,-1e-05,-1e-05,1e-05,1e-05,-1e-05,0.0,0.0,0.0,1,30.0
3207,-1e-05,-1e-05,1e-05,1e-05,-1e-05,0.0,0.0,0.0,1,30.0
3208,-1e-05,-1e-05,1e-05,1e-05,-1e-05,0.0,0.0,0.0,1,30.0
3209,-1e-05,-1e-05,1e-05,1e-05,-1e-05,0.0,0.0,0.0,1,30.0
3210,-1e-05,-1e-05,1e-05,1e-05,-1e-05,0.0,0.0,0.0,1,30.0
3211,-1e-05,-1e-05,1e-05,1e-05,-1e-05,0.0,0.0,0.0,1,30.0
3212,-1e-05,-1e-05,1e-05,1e-05,-1e-05,0.0,0.0,0.0,1,30.0
3213,-1e-05,-1e-05,1e-05,1e-05,-1e-05,0.0,0.0,0.0,1,30.0
3214,-1e-05,-1e-05,1e-05,1e-05,-1e-05,0.0,0.0,0.0,1,30.0
3215,-1e-05,-1e-05,1e-05,1e-05,-1e-05,0.0,0.0,0.0,1,30.0
3216,-1e-05,-1e-05,1e-05,1e-05,-1e-05,0.0,0.0,0.0,1,30.0
3217,-1e-05,-1e-05,1e-05,1e-05,-1e-05,0.0,0.0,0.0,1,30.0
3218,-1e-05,-1e-05,1e-05,1e-05,-1e-05,0.0,0.0,0.0,1,30.0
3219,-1e-05,-1e-05,1e-05,1e-05,-1e-05,0.0,0.0,0.0,1,30.0
3220,-1e-05,-2e-05,-0.00035,-0.00011,1e-05,1e-05,1e-05,1e-05,1,30.0
3221,-1e-05,-2e-05,-0.00035,-0.00011,1e-05,1e-05,1e-05,1e-05,1,30.0
3222,-1e-05,-2e-05,-0.00035,-0.00011,1e-05,1e-05,1e-05,1e-05,1,30.0
3223,-1e-05,-2e-05,-0.00035,-0.00011,1e-05,1e-05,1e-05,1e-05,1,30.0
3224,-1e-05,-2e-05,-0.00035,-0.00011,1e-05,1e-05,1e-05,1e-05,1,30.0
3225,-1e-05,-2e-05,-0.00035,-0.00011,1e-05,1e-05,1e-05,1e-05,1,30.0
3226,-1e-05,-2e-05,-0.00035,-0.00011,1e-05,1e-05,1e-05,1e-05,1,30.0
3227,-1e-05,-2e-05,-0.00035,-0.00011,1e-05,1e-05,1e-05,1e-05,1,30.0
3228,-1e-05,-2e-05,-0.00035,-0.00011,1e-05,1e-05,1e-05,1e-05,1,30.0
3229,-1e-05,-2e-05,-0.00035,-0.00011,1e-05,1e-05,1e-05,1e-05,1,30.0
3230,-1e-05,-2e-05,-0.00035,-0.00011,1e-05,1e-05,1e-05,1e-05,1,30.0
3231,-1e-05,-2e-05,-0.00035,-0.00011,1e-05,1e-05,1e-05,1e-05,1,30.0
3232,-1e-05,-2e-05,-0.00035,-0.00011,1e-05,1e-05,1e-05,1e-05,1,30.0
3233,-1e-05,-2e-05,-0.00035,-0.00011,1e-05,1e-05,1e-05,1e-05,1,30.0
3234,-1e-05,-2e-05,-0.00035,-0.00011,1e-05,1e-05,1e-05,1e-05,1,30.0
3235,-1e-05,-2e-05,-0.00035,-0.00011,1e-05,1e-05,1e-05,1e-05,1,30.0
3236,-1e-05,-2e-05,-0.00035,-0.00011,1e-05,1e-05,1e-05,1e-05,1,30.0
3238,-1e-05,-2e-05,-0.00035,-0.00011,1e-05,1e-05,1e-05,1e-05,1,30.0
3239,-1e-05,-2e-05,-0.00035,-0.00011,1e-05,1e-05,1e-05,1e-05,1,30.0
3240,-1e-05,-2e-05,-0.00035,-0.00011,1e-05,1e-05,1e-05,1e-05,1,30.0
3241,-1e-05,-2e-05,-0.00035,-0.00011,1e-05,1e-05,1e-05,1e-05,1,30.0
3242,-1e-05,-2e-05,-0.00012,-1e-05,-4e-05,0.0,1e-05,1e-05,1,30.0
3243,-1e-05,3e-05,6e-05,4e-05,1e-05,0.0,-2e-05,0.0,1,30.0
3244,-1e-05,3e-05,6e-05,4e-05,1e-05,0.0,-2e-05,0.0,1,30.0
3245,-1e-05,3e-05,6e-05,4e-05,1e-05,0.0,-2e-05,0.0,1,30.0
3246,-1e-05,3e-05,6e-05,4e-05,1e-05,0.0,-2e-05,0.0,1,30.0
3247,-1e-05,3e-05,6e-05,4e-05,1e-05,0.0,-2e-05,0.0,1,30.0
3248,-1e-05,3e-05,6e-05,4e-05,1e-05,0.0,-2e-05,0.0,1,30.0
3249,-1e-05,3e-05,6e-05,4e-05,1e-05,0.0,-2e-05,0.0,1,30.0
3250,-1e-05,3e-05,6e-05,4e-05,1e-05,0.0,-2e-05,0.0,1,30.0
3251,-1e-05,3e-05,6e-05,4e-05,1e-05,0.0,-2e-05,0.0,1,30.0
3252,-1e-05,3e-05,6e-05,4e-05,1e-05,0.0,-2e-05,0.0,1,30.0
3253,-1e-05,3e-05,6e-05,4e-05,1e-05,0.0,-2e-05,0.0,1,30.0
3254,-1e-05,3e-05,6e-05,4e-05,1e-05,0.0,-2e-05,0.0,1,30.0
3255,-1e-05,3e-05,6e-05,4e-05,1e-05,0.0,-2e-05,0.0,1,30.0
3256,-1e-05,3e-05,6e-05,4e-05,1e-05,0.0,-2e-05,0.0,1,30.0
3257,-1e-05,3e-05,6e-05,4e-05,1e-05,0.0,-2e-05,0.0,1,30.0
3258,-1e-05,3e-05,6e-05,4e-05,1e-05,0.0,-2e-05,0.0,1,30.0
3259,-1e-05,3e-05,6e-05,4e-05,1e-05,0.0,-2e-05,0.0,1,30.0
3260,-1e-05,3e-05,6e-05,4e-05,1e-05,0.0,-2e-05,0.0,1,30.0
3261,-1e-05,3e-05,6e-05,4e-05,1e-05,0.0,-2e-05,0.0,1,30.0
3262,-1e-05,3e-05,6e-05,4e-05,1e-05,0.0,-2e-05,0.0,1,30.0
3263,-1e-05,3e-05,6e-05,4e-05,1e-05,0.0,-2e-05,0.0,1,30.0
3264,-1e-05,3e-05,6e-05,4e-05,1e-05,0.0,-2e-05,0.0,1,30.0
3265,-2e-05,-3e-05,8e-05,-4e-05,-5e-05,-1e-05,0.0,-2e-05,1,30.0
3266,-2e-05,-2e-05,-0.00023,-0.00011,-3e-05,-2e-05,0.0,0.0,1,30.0
3267,0.0,-3e-05,5e-05,1e-05,0.0,1e-05,-2e-05,1e-05,1,30.0
3268,0.0,-3e-05,5e-05,1e-05,0.0,1e-05,-2e-05,1e-05,1,30.0
3269,0.0,-3e-05,5e-05,1e-05,0.0,1e-05,-2e-05,1e-05,1,30.0
3270,0.0,-3e-05,5e-05,1e-05,0.0,1e-05,-2e-05,1e-05,1,30.0
3271,0.0,-3e-05,5e-05,1e-05,0.0,1e-05,-2e-05,1e-05,1,30.0
3272,0.0,-3e-05,5e-05,1e-05,0.0,1e-05,-2e-05,1e-05,1,30.0
3273,0.0,-3e-05,5e-05,1e-05,0.0,1e-05,-2e-05,1e-05,1,30.0
3274,0.0,-3e-05,5e-05,1e-05,0.0,1e-05,-2e-05,1e-05,1,30.0
3275,0.0,-3e-05,5e-05,1e-05,0.0,1e-05,-2e-05,1e-05,1,30.0
3276,0.0,-3e-05,5e-05,1e-05,0.0,1e-05,-2e-05,1e-05,1,30.0
3277,0.0,-3e-05,5e-05,1e-05,0.0,1e-05,-2e-05,1e-05,1,30.0
3278,0.0,-3e-05,5e-05,1e-05,0.0,1e-05,-2e-05,1e-05,1,30.0
3279,0.0,-2e-05,-6e-05,1e-05,-2e-05,-1e-05,-1e-05,-3e-05,1,30.0
3280,-2e-05,-3e-05,1e-05,-2e-05,-2e-05,-3e-05,-1e-05,0.0,1,30.0
3281,-2e-05,-3e-05,1e-05,-2e-05,-2e-05,-3e-05,-1e-05,0.0,1,30.0
3282,-2e-05,-3e-05,1e-05,-2e-05,-2e-05,-3e-05,-1e-05,0.0,1,30.0
3283,-2e-05,-3e-05,1e-05,-2e-05,-2e-05,-3e-05,-1e-05,0.0,1,30.0
3284,-2e-05,-3e-05,1e-05,-2e-05,-2e-05,-3e-05,-1e-05,0.0,1,30.0
3285,-2e-05,-3e-05,1e-05,-2e-05,-2e-05,-3e-05,-1e-05,0.0,1,30.0
3286,-2e-05,-3e-05,1e-05,-2e-05,-2e-05,-3e-05,-1e-05,0.0,1,30.0
3288,-2e-05,-3e-05,1e-05,-2e-05,-2e-05,-3e-05,-1e-05,0.0,1,30.0
3289,-2e-05,-3e-05,1e-05,-2e-05,-2e-05,-3e-05,-1e-05,0.0,1,30.0
3290,-2e-05,-3e-05,1e-05,-2e-05,-2e-05,-3e-05,-1e-05,0.0,1,30.0
3291,-2e-05,-3e-05,1e-05,-2e-05,-2e-05,-3e-05,-1e-05,0.0,1,30.0
3292,-2e-05,-3e-05,1e-05,-2e-05,-2e-05,-3e-05,-1e-05,0.0,1,30.0
3293,-2e-05,-3e-05,1e-05,-2e-05,-2e-05,-3e-05,-1e-05,0.0,1,30.0
3294,-2e-05,-3e-05,1e-05,-2e-05,-2e-05,-3e-05,-1e-05,0.0,1,30.0
3295,-2e-05,-3e-05,1e-05,-2e-05,-2e-05,-3e-05,-1e-05,0.0,1,30.0
3296,-2e-05,-3e-05,1e-05,-2e-05,-2e-05,-3e-05,-1e-05,0.0,1,30.0
3297,-2e-05,-3e-05,1e-05,-2e-05,-2e-05,-3e-05,-1e-05,0.0,1,30.0
3298,-2e-05,-3e-05,1e-05,-2e-05,-2e-05,-3e-05,-1e-05,0.0,1,30.0
3299,-2e-05,-3e-05,1e-05,-2e-05,-2e-05,-3e-05,-1e-05,0.0,1,30.0
3300,-2e-05,-3e-05,1e-05,-2e-05,-2e-05,-3e-05,-1e-05,0.0,1,30.0
3301,-2e-05,-3e-05,1e-05,-2e-05,-2e-05,-3e-05,-1e-05,0.0,1,30.0
3302,2e-05,1e-05,-1e-05,0.0,0.0,2e-05,0.0,0.0,1,30.0
3303,0.0,1e-05,0.00012,1e-05,-1e-05,-1e-05,-1e-05,-2e-05,1,30.0
3304,0.0,1e-05,0.00012,1e-05,-1e-05,-1e-05,-1e-05,-2e-05,1,30.0
3305,0.0,1e-05,0.00012,1e-05,-1e-05,-1e-05,-1e-05,-2e-05,1,30.0
3306,0.0,1e-05,0.00012,1e-05,-1e-05,-1e-05,-1e-05,-2e-05,1,30.0
3307,0.0,1e-05,0.00012,1e-05,-1e-05,-1e-05,-1e-05,-2e-05,1,30.0
3308,0.0,1e-05,0.00012,1e-05,-1e-05,-1e-05,-1e-05,-2e-05,1,30.0
3309,0.0,1e-05,0.00012,1e-05,-1e-05,-1e-05,-1e-05,-2e-05,1,30.0
3310,0.0,1e-05,0.00012,1e-05,-1e-05,-1e-05,-1e-05,-2e-05,1,30.0
3311,0.0,1e-05,0.00012,1e-05,-1e-05,-1e-05,-1e-05,-2e-05,1,30.0
3312,0.0,1e-05,0.00012,1e-05,-1e-05,-1e-05,-1e-05,-2e-05,1,30.0
3313,0.0,1e-05,0.00012,1e-05,-1e-05,-1e-05,-1e-05,-2e-05,1,30.0
3314,0.0,1e-05,0.00012,1e-05,-1e-05,-1e-05,-1e-05,-2e-05,1,30.0
3315,0.0,1e-05,0.00012,1e-05,-1e-05,-1e-05,-1e-05,-2e-05,1,30.0
3316,0.0,1e-05,0.00012,1e-05,-1e-05,-1e-05,-1e-05,-2e-05,1,30.0
3317,0.0,1e-05,0.00012,1e-05,-1e-05,-1e-05,-1e-05,-2e-05,1,30.0
3318,0.0,1e-05,0.00012,1e-05,-1e-05,-1e-05,-1e-05,-2e-05,1,30.0
3319,0.0,1e-05,0.00012,1e-05,-1e-05,-1e-05,-1e-05,-2e-05,1,30.0
3320,0.0,1e-05,0.00012,1e-05,-1e-05,-1e-05,-1e-05,-2e-05,1,30.0
3321,0.0,1e-05,0.00012,1e-05,-1e-05,-1e-05,-1e-05,-2e-05,1,30.0
3322,0.0,1e-05,0.00012,1e-05,-1e-05,-1e-05,-1e-05,-2e-05,1,30.0
3323,0.0,1e-05,0.00012,1e-05,-1e-05,-1e-05,-1e-05,-2e-05,1,30.0
3324,0.0,1e-05,0.00012,1e-05,-1e-05,-1e-05,-1e-05,-2e-05,1,30.0
3325,1e-05,0.0,-3e-05,-2e-05,-1e-05,-1e-05,-1e-05,-1e-05,1,30.0
3326,-4e-05,-4e-05,1e-05,-3e-05,-4e-05,-3e-05,-2e-05,-1e-05,1,30.0
3327,-4e-05,-4e-05,1e-05,-3e-05,-4e-05,-3e-05,-2e-05,-1e-05,1,30.0
3328,-4e-05,-4e-05,1e-05,-3e-05,-4e-05,-3e-05,-2e-05,-1e-05,1,30.0
3329,-4e-05,-4e-05,1e-05,-3e-05,-4e-05,-3e-05,-2e-05,-1e-05,1,30.0
3330,-4e-05,-4e-05,1e-05,-3e-05,-4e-05,-3e-05,-2e-05,-1e-05,1,30.0
3331,-4e-05,-4e-05,1e-05,-3e-05,-4e-05,-3e-05,-2e-05,-1e-05,1,30.0
3332,-4e-05,-4e-05,1e-05,-3e-05,-4e-05,-3e-05,-2e-05,-1e-05,1,30.0
3333,-4e-05,-4e-05,1e-05,-3e-05,-4e-05,-3e-05,-2e-05,-1e-05,1,30.0
3334,-4e-05,-4e-05,1e-05,-3e-05,-4e-05,-3e-05,-2e-05,-1e-05,1,30.0
3335,-4e-05,-4e-05,1e-05,-3e-05,-4e-05,-3e-05,-2e-05,-1e-05,1,30.0
3336,-4e-05,-4e-05,1e-05,-3e-05,-4e-05,-3e-05,-2e-05,-1e-05,1,30.0
3338,-4e-05,-4e-05,1e-05,-3e-05,-4e-05,-3e-05,-2e-05,-1e-05,1,30.0
3339,-4e-05,-4e-05,1e-05,-3e-05,-4e-05,-3e-05,-2e-05,-1e-05,1,30.0
3340,-1e-05,-1e-05,1e-05,-0.00022,-1e-05,0.0,-1e-05,-1e-05,1,30.0
3341,-1e-05,-1e-05,1e-05,-0.00022,-1e-05,0.0,-1e-05,-1e-05,1,30.0
3342,-1e-05,-1e-05,1e-05,-0.00022,-1e-05,0.0,-1e-05,-1e-05,1,30.0
3343,-1e-05,-1e-05,1e-05,-0.00022,-1e-05,0.0,-1e-05,-1e-05,1,30.0
3344,-1e-05,-1e-05,1e-05,-0.00022,-1e-05,0.0,-1e-05,-1e-05,1,30.0
3345,-1e-05,-1e-05,1e-05,-0.00022,-1e-05,0.0,-1e-05,-1e-05,1,30.0
3346,-1e-05,-1e-05,1e-05,-0.00022,-1e-05,0.0,-1e-05,-1e-05,1,30.0
3347,-1e-05,-1e-05,1e-05,-0.00022,-1e-05,0.0,-1e-05,-1e-05,1,30.0
3348,-1e-05,-1e-05,1e-05,-0.00022,-1e-05,0.0,-1e-05,-1e-05,1,30.0
3349,-1e-05,-1e-05,1e-05,-0.00022,-1e-05,0.0,-1e-05,-1e-05,1,30.0
3350,-1e-05,-1e-05,1e-05,-0.00022,-1e-05,0.0,-1e-05,-1e-05,1,30.0
3351,-1e-05,-1e-05,1e-05,-0.00022,-1e-05,0.0,-1e-05,-1e-05,1,30.0
3352,-1e-05,-1e-05,1e-05,-0.00022,-1e-05,0.0,-1e-05,-1e-05,1,30.0
3353,-1e-05,-1e-05,1e-05,-0.00022,-1e-05,0.0,-1e-05,-1e-05,1,30.0
3354,-1e-05,-1e-05,1e-05,-0.00022,-1e-05,0.0,-1e-05,-1e-05,1,30.0
3355,-1e-05,-1e-05,1e-05,-0.00022,-1e-05,0.0,-1e-05,-1e-05,1,30.0
3356,-1e-05,-1e-05,1e-05,-0.00022,-1e-05,0.0,-1e-05,-1e-05,1,30.0
3357,-1e-05,-1e-05,1e-05,-0.00022,-1e-05,0.0,-1e-05,-1e-05,1,30.0
3358,-1e-05,-1e-05,1e-05,-0.00022,-1e-05,0.0,-1e-05,-1e-05,1,30.0
3359,-1e-05,-1e-05,1e-05,-0.00022,-1e-05,0.0,-1e-05,-1e-05,1,30.0
3360,-1e-05,-1e-05,1e-05,-0.00022,-1e-05,0.0,-1e-05,-1e-05,1,30.0
3361,-1e-05,-1e-05,1e-05,-0.00022,-1e-05,0.0,-1e-05,-1e-05,1,30.0
3362,-1e-05,0.0,2e-05,2e-05,-2e-05,-1e-05,-1e-05,0.0,1,30.0
3363,-1e-05,-1e-05,0.0,-4e-05,2e-05,0.0,1e-05,0.0,1,30.0
3364,-1e-05,-1e-05,0.0,-4e-05,2e-05,0.0,1e-05,0.0,1,30.0
3365,-1e-05,-1e-05,0.0,-4e-05,2e-05,0.0,1e-05,0.0,1,30.0
3366,-1e-05,-1e-05,0.0,-4e-05,2e-05,0.0,1e-05,0.0,1,30.0
3367,-1e-05,-1e-05,0.0,-4e-05,2e-05,0.0,1e-05,0.0,1,30.0
3368,-1e-05,-1e-05,0.0,-4e-05,2e-05,0.0,1e-05,0.0,1,30.0
3369,-1e-05,-1e-05,0.0,-4e-05,2e-05,0.0,1e-05,0.0,1,30.0
3370,-1e-05,-1e-05,0.0,-4e-05,2e-05,0.0,1e-05,0.0,1,30.0
3371,-1e-05,-1e-05,0.0,-4e-05,2e-05,0.0,1e-05,0.0,1,30.0
3372,-1e-05,-1e-05,0.0,-4e-05,2e-05,0.0,1e-05,0.0,1,30.0
3373,-1e-05,-1e-05,0.0,-4e-05,2e-05,0.0,1e-05,0.0,1,30.0
3374,-1e-05,-1e-05,0.0,-4e-05,2e-05,0.0,1e-05,0.0,1,30.0
3375,-1e-05,-1e-05,0.0,-4e-05,2e-05,0.0,1e-05,0.0,1,30.0
3376,-1e-05,-1e-05,0.0,-4e-05,2e-05,0.0,1e-05,0.0,1,30.0
3377,-1e-05,-1e-05,0.0,-4e-05,2e-05,0.0,1e-05,0.0,1,30.0
3378,-1e-05,-1e-05,0.0,-4e-05,2e-05,0.0,1e-05,0.0,1,30.0
3379,-1e-05,-1e-05,0.0,-4e-05,2e-05,0.0,1e-05,0.0,1,30.0
3380,-1e-05,-1e-05,0.0,-4e-05,2e-05,0.0,1e-05,0.0,1,30.0
3381,-1e-05,-1e-05,0.0,-4e-05,2e-05,0.0,1e-05,0.0,1,30.0
3382,-1e-05,-1e-05,0.0,-4e-05,2e-05,0.0,1e-05,0.0,1,30.0
3383,-1e-05,-1e-05,0.0,-4e-05,2e-05,0.0,1e-05,0.0,1,30.0
3384,-1e-05,-1e-05,0.0,-4e-05,2e-05,0.0,1e-05,0.0,1,30.0
3385,-3e-05,-3e-05,-0.00019,-2e-05,-2e-05,-2e-05,-1e-05,-3e-05,1,30.0
3386,0.0,0.0,0.00017,8e-05,-1e-05,-1e-05,0.0,0.0,1,30.0
3388,0.0,0.0,0.00017,8e-05,-1e-05,-1e-05,0.0,0.0,1,30.0
3389,0.0,0.0,0.00017,8e-05,-1e-05,-1e-05,0.0,0.0,1,30.0
3390,0.0,0.0,0.00017,8e-05,-1e-05,-1e-05,0.0,0.0,1,30.0
3391,0.0,0.0,0.00017,8e-05,-1e-05,-1e-05,0.0,0.0,1,30.0
3392,0.0,0.0,0.00017,8e-05,-1e-05,-1e-05,0.0,0.0,1,30.0
3393,0.0,0.0,0.00017,8e-05,-1e-05,-1e-05,0.0,0.0,1,30.0
3394,0.0,0.0,0.00017,8e-05,-1e-05,-1e-05,0.0,0.0,1,30.0
3395,0.0,0.0,0.00017,8e-05,-1e-05,-1e-05,0.0,0.0,1,30.0
3396,0.0,0.0,0.00017,8e-05,-1e-05,-1e-05,0.0,0.0,1,30.0
3397,0.0,0.0,0.00017,8e-05,-1e-05,-1e-05,0.0,0.0,1,30.0
3398,0.0,0.0,0.00017,8e-05,-1e-05,-1e-05,0.0,0.0,1,30.0
3399,0.0,0.0,0.00017,8e-05,-1e-05,-1e-05,0.0,0.0,1,30.0
3400,-1e-05,0.0,-8e-05,2e-05,-2e-05,-2e-05,-3e-05,-2e-05,1,30.0
3401,-1e-05,0.0,-8e-05,2e-05,-2e-05,-2e-05,-3e-05,-2e-05,1,30.0
3402,-1e-05,0.0,-8e-05,2e-05,-2e-05,-2e-05,-3e-05,-2e-05,1,30.0
3403,-1e-05,0.0,-8e-05,2e-05,-2e-05,-2e-05,-3e-05,-2e-05,1,30.0
3404,-1e-05,0.0,-8e-05,2e-05,-2e-05,-2e-05,-3e-05,-2e-05,1,30.0
3405,-1e-05,0.0,-8e-05,2e-05,-2e-05,-2e-05,-3e-05,-2e-05,1,30.0
3406,-1e-05,0.0,-8e-05,2e-05,-2e-05,-2e-05,-3e-05,-2e-05,1,30.0
3407,-1e-05,0.0,-8e-05,2e-05,-2e-05,-2e-05,-3e-05,-2e-05,1,30.0
3408,-1e-05,0.0,-8e-05,2e-05,-2e-05,-2e-05,-3e-05,-2e-05,1,30.0
3409,-1e-05,0.0,-8e-05,2e-05,-2e-05,-2e-05,-3e-05,-2e-05,1,30.0
3410,-1e-05,0.0,-8e-05,2e-05,-2e-05,-2e-05,-3e-05,-2e-05,1,30.0
3411,-1e-05,0.0,-8e-05,2e-05,-2e-05,-2e-05,-3e-05,-2e-05,1,30.0
3412,-1e-05,0.0,-8e-05,2e-05,-2e-05,-2e-05,-3e-05,-2e-05,1,30.0
3413,-1e-05,0.0,-8e-05,2e-05,-2e-05,-2e-05,-3e-05,-2e-05,1,30.0
3414,-1e-05,0.0,-8e-05,2e-05,-2e-05,-2e-05,-3e-05,-2e-05,1,30.0
3415,-1e-05,0.0,-8e-05,2e-05,-2e-05,-2e-05,-3e-05,-2e-05,1,30.0
3416,-1e-05,0.0,-8e-05,2e-05,-2e-05,-2e-05,-3e-05,-2e-05,1,30.0
3417,-1e-05,0.0,-8e-05,2e-05,-2e-05,-2e-05,-3e-05,-2e-05,1,30.0
3418,-1e-05,0.0,-8e-05,2e-05,-2e-05,-2e-05,-3e-05,-2e-05,1,30.0
3419,-1e-05,0.0,-8e-05,2e-05,-2e-05,-2e-05,-3e-05,-2e-05,1,30.0
3420,-1e-05,0.0,-8e-05,2e-05,-2e-05,-2e-05,-3e-05,-2e-05,1,30.0
3421,-1e-05,0.0,-8e-05,2e-05,-2e-05,-2e-05,-3e-05,-2e-05,1,30.0
3422,1e-05,0.0,-3e-05,-5e-05,-1e-05,0.0,1e-05,0.0,1,30.0
3423,-1e-05,0.0,0.0,4e-05,-2e-05,-1e-05,-1e-05,-2e-05,1,30.0
3424,-1e-05,0.0,0.0,4e-05,-2e-05,-1e-05,-1e-05,-2e-05,1,30.0
3425,-1e-05,0.0,0.0,4e-05,-2e-05,-1e-05,-1e-05,-2e-05,1,30.0
3426,-1e-05,0.0,0.0,4e-05,-2e-05,-1e-05,-1e-05,-2e-05,1,30.0
3427,-1e-05,0.0,0.0,4e-05,-2e-05,-1e-05,-1e-05,-2e-05,1,30.0
3428,-1e-05,0.0,0.0,4e-05,-2e-05,-1e-05,-1e-05,-2e-05,1,30.0
3429,-1e-05,0.0,0.0,4e-05,-2e-05,-1e-05,-1e-05,-2e-05,1,30.0
3430,-1e-05,0.0,0.0,4e-05,-2e-05,-1e-05,-1e-05,-2e-05,1,30.0
3431,-1e-05,0.0,0.0,4e-05,-2e-05,-1e-05,-1e-05,-2e-05,1,30.0
3432,-1e-05,0.0,0.0,4e-05,-2e-05,-1e-05,-1e-05,-2e-05,1,30.0
3433,-1e-05,0.0,0.0,4e-05,-2e-05,-1e-05,-1e-05,-2e-05,1,30.0
3434,-1e-05,0.0,0.0,4e-05,-2e-05,-1e-05,-1e-05,-2e-05,1,30.0
3435,-1e-05,0.0,0.0,4e-05,-2e-05,-1e-05,-1e-05,-2e-05,1,30.0
3436,-1e-05,0.0,0.0,4e-05,-2e-05,-1e-05,-1e-05,-2e-05,1,30.0
3438,-1e-05,0.0,0.0,4e-05,-2e-05,-1e-05,-1e-05,-2e-05,1,30.0
3439,-1e-05,0.0,0.0,4e-05,-2e-05,-1e-05,-1e-05,-2e-05,1,30.0
3440,-1e-05,0.0,0.0,4e-05,-2e-05,-1e-05,-1e-05,-2e-05,1,30.0
3441,-1e-05,0.0,0.0,4e-05,-2e-05,-1e-05,-1e-05,-2e-05,1,30.0
3442,-1e-05,0.0,0.0,4e-05,-2e-05,-1e-05,-1e-05,-2e-05,1,30.0
3443,-1e-05,0.0,0.0,4e-05,-2e-05,-1e-05,-1e-05,-2e-05,1,30.0
3444,-1e-05,0.0,0.0,4e-05,-2e-05,-1e-05,-1e-05,-2e-05,1,30.0
3445,-1e-05,-2e-05,-5e-05,-7e-05,-3e-05,-1e-05,-3e-05,-2e-05,1,30.0
3446,-1e-05,-2e-05,5e-05,1e-05,3e-05,0.0,-2e-05,-1e-05,1,30.0
3447,-1e-05,-2e-05,5e-05,1e-05,3e-05,0.0,-2e-05,-1e-05,1,30.0
3448,-1e-05,-2e-05,5e-05,1e-05,3e-05,0.0,-2e-05,-1e-05,1,30.0
3449,-1e-05,-2e-05,5e-05,1e-05,3e-05,0.0,-2e-05,-1e-05,1,30.0
3450,-1e-05,-2e-05,5e-05,1e-05,3e-05,0.0,-2e-05,-1e-05,1,30.0
3451,-1e-05,-2e-05,5e-05,1e-05,3e-05,0.0,-2e-05,-1e-05,1,30.0
3452,-1e-05,-2e-05,5e-05,1e-05,3e-05,0.0,-2e-05,-1e-05,1,30.0
3453,-1e-05,-2e-05,5e-05,1e-05,3e-05,0.0,-2e-05,-1e-05,1,30.0
3454,-1e-05,-2e-05,5e-05,1e-05,3e-05,0.0,-2e-05,-1e-05,1,30.0
3455,-1e-05,-2e-05,5e-05,1e-05,3e-05,0.0,-2e-05,-1e-05,1,30.0
3456,-1e-05,-2e-05,5e-05,1e-05,3e-05,0.0,-2e-05,-1e-05,1,30.0
3457,-1e-05,-2e-05,5e-05,1e-05,3e-05,0.0,-2e-05,-1e-05,1,30.0
3458,-1e-05,-2e-05,5e-05,1e-05,3e-05,0.0,-2e-05,-1e-05,1,30.0
3459,-1e-05,-2e-05,5e-05,1e-05,3e-05,0.0,-2e-05,-1e-05,1,30.0
3460,0.0,1e-05,1e-05,8e-05,3e-05,1e-05,-1e-05,1e-05,1,30.0
3461,-1e-05,-2e-05,-0.00016,-7e-05,-4e-05,0.0,0.0,-1e-05,1,30.0
3462,-1e-05,-2e-05,-0.00016,-7e-05,-4e-05,0.0,0.0,-1e-05,1,30.0
3463,-1e-05,-2e-05,-0.00016,-7e-05,-4e-05,0.0,0.0,-1e-05,1,30.0
3464,-1e-05,-2e-05,-0.00016,-7e-05,-4e-05,0.0,0.0,-1e-05,1,30.0
3465,-1e-05,-2e-05,-0.00016,-7e-05,-4e-05,0.0,0.0,-1e-05,1,30.0
3466,-1e-05,-2e-05,-0.00016,-7e-05,-4e-05,0.0,0.0,-1e-05,1,30.0
3467,-1e-05,-2e-05,-0.00016,-7e-05,-4e-05,0.0,0.0,-1e-05,1,30.0
3468,-1e-05,-2e-05,-0.00016,-7e-05,-4e-05,0.0,0.0,-1e-05,1,30.0
3469,-1e-05,-2e-05,-0.00016,-7e-05,-4e-05,0.0,0.0,-1e-05,1,30.0
3470,-1e-05,-2e-05,-0.00016,-7e-05,-4e-05,0.0,0.0,-1e-05,1,30.0
3471,-1e-05,-2e-05,-0.00016,-7e-05,-4e-05,0.0,0.0,-1e-05,1,30.0
3472,-1e-05,-2e-05,-0.00016,-7e-05,-4e-05,0.0,0.0,-1e-05,1,30.0
3473,-1e-05,-2e-05,-0.00016,-7e-05,-4e-05,0.0,0.0,-1e-05,1,30.0
3474,-1e-05,-2e-05,-0.00016,-7e-05,-4e-05,0.0,0.0,-1e-05,1,30.0
3475,-1e-05,-2e-05,-0.00016,-7e-05,-4e-05,0.0,0.0,-1e-05,1,30.0
3476,-1e-05,-2e-05,-0.00016,-7e-05,-4e-05,0.0,0.0,-1e-05,1,30.0
3477,-1e-05,-2e-05,-0.00016,-7e-05,-4e-05,0.0,0.0,-1e-05,1,30.0
3478,-1e-05,-2e-05,-0.00016,-7e-05,-4e-05,0.0,0.0,-1e-05,1,30.0
3479,-1e-05,-2e-05,-0.00016,-7e-05,-4e-05,0.0,0.0,-1e-05,1,30.0
3480,-1e-05,-2e-05,-0.00016,-7e-05,-4e-05,0.0,0.0,-1e-05,1,30.0
3481,-1e-05,-2e-05,-0.00016,-7e-05,-4e-05,0.0,0.0,-1e-05,1,30.0
3482,-1e-05,-2e-05,-0.00016,-7e-05,-4e-05,0.0,0.0,-1e-05,1,30.0
3483,-2e-05,-2e-05,-1e-05,-0.0001,-2e-05,-2e-05,-1e-05,-1e-05,1,30.0
3484,-2e-05,-2e-05,-1e-05,-0.0001,-2e-05,-2e-05,-1e-05,-1e-05,1,30.0
3485,-2e-05,-2e-05,-1e-05,-0.0001,-2e-05,-2e-05,-1e-05,-1e-05,1,30.0
3486,-2e-05,-2e-05,-1e-05,-0.0001,-2e-05,-2e-05,-1e-05,-1e-05,1,30.0
3488,-2e-05,-2e-05,-1e-05,-0.0001,-2e-05,-2e-05,-1e-05,-1e-05,1,30.0
3489,-2e-05,-2e-05,-1e-05,-0.0001,-2e-05,-2e-05,-1e-05,-1e-05,1,30.0
3490,-1e-05,-3e-05,-4e-05,0.0,-1e-05,-3e-05,1e-05,0.0,1,30.0
3491,-1e-05,-3e-05,-4e-05,0.0,-1e-05,-3e-05,1e-05,0.0,1,30.0
3492,-1e-05,-3e-05,-4e-05,0.0,-1e-05,-3e-05,1e-05,0.0,1,30.0
3493,-1e-05,-3e-05,-4e-05,0.0,-1e-05,-3e-05,1e-05,0.0,1,30.0
3494,-1e-05,-3e-05,-4e-05,0.0,-1e-05,-3e-05,1e-05,0.0,1,30.0
3495,-1e-05,-3e-05,-4e-05,0.0,-1e-05,-3e-05,1e-05,0.0,1,30.0
3496,-1e-05,-3e-05,-4e-05,0.0,-1e-05,-3e-05,1e-05,0.0,1,30.0
3497,-1e-05,-3e-05,-4e-05,0.0,-1e-05,-3e-05,1e-05,0.0,1,30.0
3498,-1e-05,-3e-05,-4e-05,0.0,-1e-05,-3e-05,1e-05,0.0,1,30.0
3499,-1e-05,-3e-05,-4e-05,0.0,-1e-05,-3e-05,1e-05,0.0,1,30.0
3500,-1e-05,-3e-05,-4e-05,0.0,-1e-05,-3e-05,1e-05,0.0,1,30.0
3501,-1e-05,-3e-05,-4e-05,0.0,-1e-05,-3e-05,1e-05,0.0,1,30.0
3502,-1e-05,-3e-05,-4e-05,0.0,-1e-05,-3e-05,1e-05,0.0,1,30.0
3503,-1e-05,-3e-05,-4e-05,0.0,-1e-05,-3e-05,1e-05,0.0,1,30.0
3504,-1e-05,-3e-05,-4e-05,0.0,-1e-05,-3e-05,1e-05,0.0,1,30.0
3505,-2e-05,1e-05,8e-05,5e-05,-2e-05,0.0,0.0,-2e-05,1,30.0
3506,-2e-05,-3e-05,-3e-05,-3e-05,-4e-05,0.0,-1e-05,0.0,1,30.0
3507,-2e-05,-3e-05,-3e-05,-3e-05,-4e-05,0.0,-1e-05,0.0,1,30.0
3508,-2e-05,-3e-05,-3e-05,-3e-05,-4e-05,0.0,-1e-05,0.0,1,30.0
3509,-2e-05,-3e-05,-3e-05,-3e-05,-4e-05,0.0,-1e-05,0.0,1,30.0
3510,-2e-05,-3e-05,-3e-05,-3e-05,-4e-05,0.0,-1e-05,0.0,1,30.0
3511,-2e-05,-3e-05,-3e-05,-3e-05,-4e-05,0.0,-1e-05,0.0,1,30.0
3512,-2e-05,-3e-05,-3e-05,-3e-05,-4e-05,0.0,-1e-05,0.0,1,30.0
3513,-2e-05,-3e-05,-3e-05,-3e-05,-4e-05,0.0,-1e-05,0.0,1,30.0
3514,-2e-05,-3e-05,-3e-05,-3e-05,-4e-05,0.0,-1e-05,0.0,1,30.0
3515,-2e-05,-3e-05,-3e-05,-3e-05,-4e-05,0.0,-1e-05,0.0,1,30.0
3516,-2e-05,-3e-05,-3e-05,-3e-05,-4e-05,0.0,-1e-05,0.0,1,30.0
3517,-2e-05,-3e-05,-3e-05,-3e-05,-4e-05,0.0,-1e-05,0.0,1,30.0
3518,-2e-05,-3e-05,-3e-05,-3e-05,-4e-05,0.0,-1e-05,0.0,1,30.0
3519,-2e-05,-3e-05,-3e-05,-3e-05,-4e-05,0.0,-1e-05,0.0,1,30.0
3520,0.0,-1e-05,0.00035,5e-05,0.0,-4e-05,0.0,0.0,1,30.0
3521,0.0,-1e-05,0.00035,5e-05,0.0,-4e-05,0.0,0.0,1,30.0
3522,0.0,-1e-05,0.00035,5e-05,0.0,-4e-05,0.0,0.0,1,30.0
3523,0.0,-1e-05,0.00035,5e-05,0.0,-4e-05,0.0,0.0,1,30.0
3524,0.0,-1e-05,0.00035,5e-05,0.0,-4e-05,0.0,0.0,1,30.0
3525,0.0,-1e-05,0.00035,5e-05,0.0,-4e-05,0.0,0.0,1,30.0
3526,0.0,-1e-05,0.00035,5e-05,0.0,-4e-05,0.0,0.0,1,30.0
3527,0.0,-1e-05,0.00035,5e-05,0.0,-4e-05,0.0,0.0,1,30.0
3528,0.0,-1e-05,0.00035,5e-05,0.0,-4e-05,0.0,0.0,1,30.0
3529,0.0,-1e-05,0.00035,5e-05,0.0,-4e-05,0.0,0.0,1,30.0
3530,0.0,-1e-05,0.00035,5e-05,0.0,-4e-05,0.0,0.0,1,30.0
3531,0.0,-1e-05,0.00035,5e-05,0.0,-4e-05,0.0,0.0,1,30.0
3532,0.0,-1e-05,0.00035,5e-05,0.0,-4e-05,0.0,0.0,1,30.0
3533,0.0,-1e-05,0.00035,5e-05,0.0,-4e-05,0.0,0.0,1,30.0
3534,0.0,-1e-05,0.00035,5e-05,0.0,-4e-05,0.0,0.0,1,30.0
3535,0.0,-1e-05,0.00035,5e-05,0.0,-4e-05,0.0,0.0,1,30.0
3536,0.0,-1e-05,0.00035,5e-05,0.0,-4e-05,0.0,0.0,1,30.0
3538,0.0,-1e-05,0.00035,5e-05,0.0,-4e-05,0.0,0.0,1,30.0
3539,0.0,-1e-05,0.00035,5e-05,0.0,-4e-05,0.0,0.0,1,30.0
3540,0.0,-1e-05,0.00035,5e-05,0.0,-4e-05,0.0,0.0,1,30.0
3541,0.0,-1e-05,0.00035,5e-05,0.0,-4e-05,0.0,0.0,1,30.0
3542,-3e-05,-5e-05,7e-05,-6e-05,-3e-05,-1e-05,-2e-05,-1e-05,1,30.0
3543,0.0,-1e-05,0.0,3e-05,-3e-05,0.0,-2e-05,0.0,1,30.0
3544,0.0,-1e-05,0.0,3e-05,-3e-05,0.0,-2e-05,0.0,1,30.0
3545,0.0,-1e-05,0.0,3e-05,-3e-05,0.0,-2e-05,0.0,1,30.0
3546,0.0,-1e-05,0.0,3e-05,-3e-05,0.0,-2e-05,0.0,1,30.0
3547,0.0,-1e-05,0.0,3e-05,-3e-05,0.0,-2e-05,0.0,1,30.0
3548,0.0,-1e-05,0.0,3e-05,-3e-05,0.0,-2e-05,0.0,1,30.0
3549,0.0,-1e-05,0.0,3e-05,-3e-05,0.0,-2e-05,0.0,1,30.0
3550,0.0,-1e-05,0.0,3e-05,-3e-05,0.0,-2e-05,0.0,1,30.0
3551,0.0,-1e-05,0.0,3e-05,-3e-05,0.0,-2e-05,0.0,1,30.0
3552,0.0,-1e-05,0.0,3e-05,-3e-05,0.0,-2e-05,0.0,1,30.0
3553,0.0,-1e-05,0.0,3e-05,-3e-05,0.0,-2e-05,0.0,1,30.0
3554,0.0,-1e-05,0.0,3e-05,-3e-05,0.0,-2e-05,0.0,1,30.0
3555,0.0,-1e-05,0.0,3e-05,-3e-05,0.0,-2e-05,0.0,1,30.0
3556,0.0,-1e-05,0.0,3e-05,-3e-05,0.0,-2e-05,0.0,1,30.0
3557,0.0,-1e-05,0.0,3e-05,-3e-05,0.0,-2e-05,0.0,1,30.0
3558,0.0,-1e-05,0.0,3e-05,-3e-05,0.0,-2e-05,0.0,1,30.0
3559,0.0,-1e-05,0.0,3e-05,-3e-05,0.0,-2e-05,0.0,1,30.0
3560,0.0,-1e-05,0.0,3e-05,-3e-05,0.0,-2e-05,0.0,1,30.0
3561,0.0,-1e-05,0.0,3e-05,-3e-05,0.0,-2e-05,0.0,1,30.0
3562,0.0,-1e-05,0.0,3e-05,-3e-05,0.0,-2e-05,0.0,1,30.0
3563,0.0,-1e-05,0.0,3e-05,-3e-05,0.0,-2e-05,0.0,1,30.0
3564,0.0,-1e-05,0.0,3e-05,-3e-05,0.0,-2e-05,0.0,1,30.0
3565,0.0,-1e-05,0.0,3e-05,-3e-05,0.0,-2e-05,0.0,1,30.0
3567,-1e-05,0.0,-6e-05,1e-05,1e-05,0.0,-2e-05,-1e-05,1,30.0
3568,-1e-05,3e-05,1e-05,0.0001,0.0,0.0,-1e-05,-1e-05,1,30.0
3569,-1e-05,3e-05,1e-05,0.0001,0.0,0.0,-1e-05,-1e-05,1,30.0
3570,-1e-05,3e-05,1e-05,0.0001,0.0,0.0,-1e-05,-1e-05,1,30.0
3571,-1e-05,3e-05,1e-05,0.0001,0.0,0.0,-1e-05,-1e-05,1,30.0
3572,-1e-05,3e-05,1e-05,0.0001,0.0,0.0,-1e-05,-1e-05,1,30.0
3573,-1e-05,3e-05,1e-05,0.0001,0.0,0.0,-1e-05,-1e-05,1,30.0
3574,-1e-05,3e-05,1e-05,0.0001,0.0,0.0,-1e-05,-1e-05,1,30.0
3575,-1e-05,3e-05,1e-05,0.0001,0.0,0.0,-1e-05,-1e-05,1,30.0
3576,-1e-05,3e-05,1e-05,0.0001,0.0,0.0,-1e-05,-1e-05,1,30.0
3577,-1e-05,3e-05,1e-05,0.0001,0.0,0.0,-1e-05,-1e-05,1,30.0
3578,-1e-05,3e-05,1e-05,0.0001,0.0,0.0,-1e-05,-1e-05,1,30.0
3579,-3e-05,-1e-05,0.0001,-0.00011,-2e-05,-2e-05,1e-05,-1e-05,1,30.0
3580,-3e-05,-5e-05,-0.00017,-6e-05,-3e-05,-1e-05,-1e-05,0.0,1,30.0
3581,-3e-05,-5e-05,-0.00017,-6e-05,-3e-05,-1e-05,-1e-05,0.0,1,30.0
3582,-3e-05,-5e-05,-0.00017,-6e-05,-3e-05,-1e-05,-1e-05,0.0,1,30.0
3583,-3e-05,-5e-05,-0.00017,-6e-05,-3e-05,-1e-05,-1e-05,0.0,1,30.0
3584,-3e-05,-5e-05,-0.00017,-6e-05,-3e-05,-1e-05,-1e-05,0.0,1,30.0
3585,-3e-05,-5e-05,-0.00017,-6e-05,-3e-05,-1e-05,-1e-05,0.0,1,30.0
3586,-3e-05,-5e-05,-0.00017,-6e-05,-3e-05,-1e-05,-1e-05,0.0,1,30.0
3588,-3e-05,-5e-05,-0.00017,-6e-05,-3e-05,-1e-05,-1e-05,0.0,1,30.0
3589,-3e-05,-5e-05,-0.00017,-6e-05,-3e-05,-1e-05,-1e-05,0.0,1,30.0
3590,-3e-05,-5e-05,-0.00017,-6e-05,-3e-05,-1e-05,-1e-05,0.0,1,30.0
3591,-3e-05,-5e-05,-0.00017,-6e-05,-3e-05,-1e-05,-1e-05,0.0,1,30.0
3592,-3e-05,-5e-05,-0.00017,-6e-05,-3e-05,-1e-05,-1e-05,0.0,1,30.0
3593,-3e-05,-5e-05,-0.00017,-6e-05,-3e-05,-1e-05,-1e-05,0.0,1,30.0
3594,-3e-05,-5e-05,-0.00017,-6e-05,-3e-05,-1e-05,-1e-05,0.0,1,30.0
3595,-3e-05,-5e-05,-0.00017,-6e-05,-3e-05,-1e-05,-1e-05,0.0,1,30.0
3596,-3e-05,-5e-05,-0.00017,-6e-05,-3e-05,-1e-05,-1e-05,0.0,1,30.0
3597,-3e-05,-5e-05,-0.00017,-6e-05,-3e-05,-1e-05,-1e-05,0.0,1,30.0
3598,-3e-05,-5e-05,-0.00017,-6e-05,-3e-05,-1e-05,-1e-05,0.0,1,30.0
3599,-3e-05,-5e-05,-0.00017,-6e-05,-3e-05,-1e-05,-1e-05,0.0,1,30.0
3600,-3e-05,-5e-05,-0.00017,-6e-05,-3e-05,-1e-05,-1e-05,0.0,1,30.0
3601,-3e-05,-5e-05,-0.00017,-6e-05,-3e-05,-1e-05,-1e-05,0.0,1,30.0
3602,-1e-05,2e-05,5e-05,2e-05,0.0,0.0,0.0,0.0,1,30.0
3603,0.0,-2e-05,-6e-05,1e-05,0.0,1e-05,-1e-05,-2e-05,1,30.0
3604,0.0,-2e-05,-6e-05,1e-05,0.0,1e-05,-1e-05,-2e-05,1,30.0
3605,0.0,-2e-05,-6e-05,1e-05,0.0,1e-05,-1e-05,-2e-05,1,30.0
3606,0.0,-2e-05,-6e-05,1e-05,0.0,1e-05,-1e-05,-2e-05,1,30.0
3607,0.0,-2e-05,-6e-05,1e-05,0.0,1e-05,-1e-05,-2e-05,1,30.0
3608,0.0,-2e-05,-6e-05,1e-05,0.0,1e-05,-1e-05,-2e-05,1,30.0
3609,0.0,-2e-05,-6e-05,1e-05,0.0,1e-05,-1e-05,-2e-05,1,30.0
3610,0.0,-2e-05,-6e-05,1e-05,0.0,1e-05,-1e-05,-2e-05,1,30.0
3611,0.0,-2e-05,-6e-05,1e-05,0.0,1e-05,-1e-05,-2e-05,1,30.0
3612,0.0,-2e-05,-6e-05,1e-05,0.0,1e-05,-1e-05,-2e-05,1,30.0
3613,0.0,-2e-05,-6e-05,1e-05,0.0,1e-05,-1e-05,-2e-05,1,30.0
3614,0.0,-2e-05,-6e-05,1e-05,0.0,1e-05,-1e-05,-2e-05,1,30.0
3615,0.0,-2e-05,-6e-05,1e-05,0.0,1e-05,-1e-05,-2e-05,1,30.0
3616,0.0,-2e-05,-6e-05,1e-05,0.0,1e-05,-1e-05,-2e-05,1,30.0
3617,0.0,-2e-05,-6e-05,1e-05,0.0,1e-05,-1e-05,-2e-05,1,30.0
3618,0.0,-2e-05,-6e-05,1e-05,0.0,1e-05,-1e-05,-2e-05,1,30.0
3619,0.0,-2e-05,-6e-05,1e-05,0.0,1e-05,-1e-05,-2e-05,1,30.0
3620,0.0,-2e-05,-6e-05,1e-05,0.0,1e-05,-1e-05,-2e-05,1,30.0
3621,0.0,-2e-05,-6e-05,1e-05,0.0,1e-05,-1e-05,-2e-05,1,30.0
3622,0.0,-2e-05,-6e-05,1e-05,0.0,1e-05,-1e-05,-2e-05,1,30.0
3623,0.0,-2e-05,-6e-05,1e-05,0.0,1e-05,-1e-05,-2e-05,1,30.0
3624,0.0,-2e-05,-6e-05,1e-05,0.0,1e-05,-1e-05,-2e-05,1,30.0
3625,0.0,-1e-05,-1e-05,-3e-05,-1e-05,-1e-05,-2e-05,-2e-05,1,30.0
3626,1e-05,2e-05,-6e-05,-1e-05,1e-05,1e-05,-1e-05,0.0,1,30.0
3627,1e-05,2e-05,-6e-05,-1e-05,1e-05,1e-05,-1e-05,0.0,1,30.0
3628,1e-05,2e-05,-6e-05,-1e-05,1e-05,1e-05,-1e-05,0.0,1,30.0
3629,1e-05,2e-05,-6e-05,-1e-05,1e-05,1e-05,-1e-05,0.0,1,30.0
3630,1e-05,2e-05,-6e-05,-1e-05,1e-05,1e-05,-1e-05,0.0,1,30.0
3631,1e-05,2e-05,-6e-05,-1e-05,1e-05,1e-05,-1e-05,0.0,1,30.0
3632,1e-05,2e-05,-6e-05,-1e-05,1e-05,1e-05,-1e-05,0.0,1,30.0
3633,1e-05,2e-05,-6e-05,-1e-05,1e-05,1e-05,-1e-05,0.0,1,30.0
3634,1e-05,2e-05,-6e-05,-1e-05,1e-05,1e-05,-1e-05,0.0,1,30.0
3635,1e-05,2e-05,-6e-05,-1e-05,1e-05,1e-05,-1e-05,0.0,1,30.0
3636,1e-05,2e-05,-6e-05,-1e-05,1e-05,1e-05,-1e-05,0.0,1,30.0
3638,1e-05,2e-05,-6e-05,-1e-05,1e-05,1e-05,-1e-05,0.0,1,30.0
3639,-3e-05,-1e-05,0.00011,0.0,-2e-05,-2e-05,-1e-05,-1e-05,1,30.0
3640,-1e-05,-1e-05,-2e-05,-1e-05,-2e-05,-1e-05,-1e-05,-1e-05,1,30.0
3641,-1e-05,-1e-05,-2e-05,-1e-05,-2e-05,-1e-05,-1e-05,-1e-05,1,30.0
3642,-1e-05,-1e-05,-2e-05,-1e-05,-2e-05,-1e-05,-1e-05,-1e-05,1,30.0
3643,-1e-05,-1e-05,-2e-05,-1e-05,-2e-05,-1e-05,-1e-05,-1e-05,1,30.0
3644,-1e-05,-1e-05,-2e-05,-1e-05,-2e-05,-1e-05,-1e-05,-1e-05,1,30.0
3645,-1e-05,-1e-05,-2e-05,-1e-05,-2e-05,-1e-05,-1e-05,-1e-05,1,30.0
3646,-1e-05,-1e-05,-2e-05,-1e-05,-2e-05,-1e-05,-1e-05,-1e-05,1,30.0
3647,-1e-05,-1e-05,-2e-05,-1e-05,-2e-05,-1e-05,-1e-05,-1e-05,1,30.0
3648,-1e-05,-1e-05,-2e-05,-1e-05,-2e-05,-1e-05,-1e-05,-1e-05,1,30.0
3649,-1e-05,-1e-05,-2e-05,-1e-05,-2e-05,-1e-05,-1e-05,-1e-05,1,30.0
3650,-1e-05,-1e-05,-2e-05,-1e-05,-2e-05,-1e-05,-1e-05,-1e-05,1,30.0
3651,-1e-05,-1e-05,-2e-05,-1e-05,-2e-05,-1e-05,-1e-05,-1e-05,1,30.0
3652,-1e-05,-1e-05,-2e-05,-1e-05,-2e-05,-1e-05,-1e-05,-1e-05,1,30.0
3653,-1e-05,-1e-05,-2e-05,-1e-05,-2e-05,-1e-05,-1e-05,-1e-05,1,30.0
3654,-1e-05,-1e-05,-2e-05,-1e-05,-2e-05,-1e-05,-1e-05,-1e-05,1,30.0
3655,-1e-05,-1e-05,-2e-05,-1e-05,-2e-05,-1e-05,-1e-05,-1e-05,1,30.0
3656,-1e-05,-1e-05,-2e-05,-1e-05,-2e-05,-1e-05,-1e-05,-1e-05,1,30.0
3657,-1e-05,-1e-05,-2e-05,-1e-05,-2e-05,-1e-05,-1e-05,-1e-05,1,30.0
3658,-1e-05,-1e-05,-2e-05,-1e-05,-2e-05,-1e-05,-1e-05,-1e-05,1,30.0
3659,-1e-05,-1e-05,-2e-05,-1e-05,-2e-05,-1e-05,-1e-05,-1e-05,1,30.0
3660,-1e-05,-1e-05,-2e-05,-1e-05,-2e-05,-1e-05,-1e-05,-1e-05,1,30.0
3661,-1e-05,-1e-05,-2e-05,-1e-05,-2e-05,-1e-05,-1e-05,-1e-05,1,30.0
3662,-2e-05,0.0,-6e-05,-2e-05,0.0,-1e-05,-1e-05,-1e-05,1,30.0
3663,-2e-05,-1e-05,2e-05,6e-05,5e-05,-1e-05,0.0,-2e-05,1,30.0
3664,-2e-05,-1e-05,2e-05,6e-05,5e-05,-1e-05,0.0,-2e-05,1,30.0
3665,-2e-05,-1e-05,2e-05,6e-05,5e-05,-1e-05,0.0,-2e-05,1,30.0
3666,-2e-05,-1e-05,2e-05,6e-05,5e-05,-1e-05,0.0,-2e-05,1,30.0
3667,-2e-05,-1e-05,2e-05,6e-05,5e-05,-1e-05,0.0,-2e-05,1,30.0
3668,-2e-05,-1e-05,2e-05,6e-05,5e-05,-1e-05,0.0,-2e-05,1,30.0
3669,-2e-05,-1e-05,2e-05,6e-05,5e-05,-1e-05,0.0,-2e-05,1,30.0
3670,-2e-05,-1e-05,2e-05,6e-05,5e-05,-1e-05,0.0,-2e-05,1,30.0
3671,-2e-05,-1e-05,2e-05,6e-05,5e-05,-1e-05,0.0,-2e-05,1,30.0
3672,-2e-05,-1e-05,2e-05,6e-05,5e-05,-1e-05,0.0,-2e-05,1,30.0
3673,-2e-05,-1e-05,2e-05,6e-05,5e-05,-1e-05,0.0,-2e-05,1,30.0
3674,-2e-05,-1e-05,2e-05,6e-05,5e-05,-1e-05,0.0,-2e-05,1,30.0
3675,-2e-05,-1e-05,2e-05,6e-05,5e-05,-1e-05,0.0,-2e-05,1,30.0
3676,-2e-05,-1e-05,2e-05,6e-05,5e-05,-1e-05,0.0,-2e-05,1,30.0
3677,-2e-05,-1e-05,2e-05,6e-05,5e-05,-1e-05,0.0,-2e-05,1,30.0
3678,-2e-05,-1e-05,2e-05,6e-05,5e-05,-1e-05,0.0,-2e-05,1,30.0
3679,-2e-05,-1e-05,2e-05,6e-05,5e-05,-1e-05,0.0,-2e-05,1,30.0
3680,-2e-05,-1e-05,2e-05,6e-05,5e-05,-1e-05,0.0,-2e-05,1,30.0
3681,-2e-05,-1e-05,2e-05,6e-05,5e-05,-1e-05,0.0,-2e-05,1,30.0
3682,-2e-05,-1e-05,2e-05,6e-05,5e-05,-1e-05,0.0,-2e-05,1,30.0
3683,-2e-05,-1e-05,2e-05,6e-05,5e-05,-1e-05,0.0,-2e-05,1,30.0
3684,-2e-05,-1e-05,2e-05,6e-05,5e-05,-1e-05,0.0,-2e-05,1,30.0
3685,-1e-05,0.0,-0.00012,-8e-05,-2e-05,-1e-05,-1e-05,-1e-05,1,30.0
3686,0.0,2e-05,3e-05,0.0,-1e-05,-1e-05,-1e-05,0.0,1,30.0
3688,0.0,2e-05,3e-05,0.0,-1e-05,-1e-05,-1e-05,0.0,1,30.0
3689,0.0,2e-05,3e-05,0.0,-1e-05,-1e-05,-1e-05,0.0,1,30.0
3690,0.0,2e-05,3e-05,0.0,-1e-05,-1e-05,-1e-05,0.0,1,30.0
3691,0.0,2e-05,3e-05,0.0,-1e-05,-1e-05,-1e-05,0.0,1,30.0
3692,0.0,2e-05,3e-05,0.0,-1e-05,-1e-05,-1e-05,0.0,1,30.0
3693,0.0,2e-05,3e-05,0.0,-1e-05,-1e-05,-1e-05,0.0,1,30.0
3694,0.0,2e-05,3e-05,0.0,-1e-05,-1e-05,-1e-05,0.0,1,30.0
3695,0.0,2e-05,3e-05,0.0,-1e-05,-1e-05,-1e-05,0.0,1,30.0
3696,0.0,2e-05,3e-05,0.0,-1e-05,-1e-05,-1e-05,0.0,1,30.0
3697,0.0,2e-05,3e-05,0.0,-1e-05,-1e-05,-1e-05,0.0,1,30.0
3698,0.0,2e-05,3e-05,0.0,-1e-05,-1e-05,-1e-05,0.0,1,30.0
3699,0.0,2e-05,3e-05,0.0,-1e-05,-1e-05,-1e-05,0.0,1,30.0
3700,1e-05,0.0,-1e-05,2e-05,0.0,-2e-05,0.0,0.0,1,30.0
3701,1e-05,0.0,-1e-05,2e-05,0.0,-2e-05,0.0,0.0,1,30.0
3702,1e-05,0.0,-1e-05,2e-05,0.0,-2e-05,0.0,0.0,1,30.0
3703,1e-05,0.0,-1e-05,2e-05,0.0,-2e-05,0.0,0.0,1,30.0
3704,1e-05,0.0,-1e-05,2e-05,0.0,-2e-05,0.0,0.0,1,30.0
3705,1e-05,0.0,-1e-05,2e-05,0.0,-2e-05,0.0,0.0,1,30.0
3706,1e-05,0.0,-1e-05,2e-05,0.0,-2e-05,0.0,0.0,1,30.0
3707,1e-05,0.0,-1e-05,2e-05,0.0,-2e-05,0.0,0.0,1,30.0
3708,1e-05,0.0,-1e-05,2e-05,0.0,-2e-05,0.0,0.0,1,30.0
3709,1e-05,0.0,-1e-05,2e-05,0.0,-2e-05,0.0,0.0,1,30.0
3710,1e-05,0.0,-1e-05,2e-05,0.0,-2e-05,0.0,0.0,1,30.0
3711,1e-05,0.0,-1e-05,2e-05,0.0,-2e-05,0.0,0.0,1,30.0
3712,1e-05,0.0,-1e-05,2e-05,0.0,-2e-05,0.0,0.0,1,30.0
3713,1e-05,0.0,-1e-05,2e-05,0.0,-2e-05,0.0,0.0,1,30.0
3714,1e-05,0.0,-1e-05,2e-05,0.0,-2e-05,0.0,0.0,1,30.0
3715,1e-05,0.0,-1e-05,2e-05,0.0,-2e-05,0.0,0.0,1,30.0
3716,1e-05,0.0,-1e-05,2e-05,0.0,-2e-05,0.0,0.0,1,30.0
3717,1e-05,0.0,-1e-05,2e-05,0.0,-2e-05,0.0,0.0,1,30.0
3718,1e-05,0.0,-1e-05,2e-05,0.0,-2e-05,0.0,0.0,1,30.0
3719,1e-05,0.0,-1e-05,2e-05,0.0,-2e-05,0.0,0.0,1,30.0
3720,1e-05,0.0,-1e-05,2e-05,0.0,-2e-05,0.0,0.0,1,30.0
3721,1e-05,0.0,-1e-05,2e-05,0.0,-2e-05,0.0,0.0,1,30.0
3722,-1e-05,-3e-05,3e-05,3e-05,-2e-05,-1e-05,-2e-05,0.0,1,30.0
3723,-1e-05,0.0,0.00052,-1e-05,-2e-05,-2e-05,-2e-05,-2e-05,1,30.0
3724,-1e-05,0.0,0.00052,-1e-05,-2e-05,-2e-05,-2e-05,-2e-05,1,30.0
3725,-1e-05,0.0,0.00052,-1e-05,-2e-05,-2e-05,-2e-05,-2e-05,1,30.0
3726,-1e-05,0.0,0.00052,-1e-05,-2e-05,-2e-05,-2e-05,-2e-05,1,30.0
3727,-1e-05,0.0,0.00052,-1e-05,-2e-05,-2e-05,-2e-05,-2e-05,1,30.0
3728,-1e-05,0.0,0.00052,-1e-05,-2e-05,-2e-05,-2e-05,-2e-05,1,30.0
3729,-1e-05,0.0,0.00052,-1e-05,-2e-05,-2e-05,-2e-05,-2e-05,1,30.0
3730,-1e-05,0.0,0.00052,-1e-05,-2e-05,-2e-05,-2e-05,-2e-05,1,30.0
3731,-1e-05,0.0,0.00052,-1e-05,-2e-05,-2e-05,-2e-05,-2e-05,1,30.0
3732,-1e-05,0.0,0.00052,-1e-05,-2e-05,-2e-05,-2e-05,-2e-05,1,30.0
3733,-1e-05,0.0,0.00052,-1e-05,-2e-05,-2e-05,-2e-05,-2e-05,1,30.0
3734,-1e-05,0.0,0.00052,-1e-05,-2e-05,-2e-05,-2e-05,-2e-05,1,30.0
3735,-1e-05,0.0,0.00052,-1e-05,-2e-05,-2e-05,-2e-05,-2e-05,1,30.0
3736,-1e-05,0.0,0.00052,-1e-05,-2e-05,-2e-05,-2e-05,-2e-05,1,30.0
3738,-1e-05,0.0,0.00052,-1e-05,-2e-05,-2e-05,-2e-05,-2e-05,1,30.0
3739,-1e-05,0.0,0.00052,-1e-05,-2e-05,-2e-05,-2e-05,-2e-05,1,30.0
3740,-1e-05,0.0,0.00052,-1e-05,-2e-05,-2e-05,-2e-05,-2e-05,1,30.0
3741,-1e-05,0.0,0.00052,-1e-05,-2e-05,-2e-05,-2e-05,-2e-05,1,30.0
3742,-1e-05,0.0,0.00052,-1e-05,-2e-05,-2e-05,-2e-05,-2e-05,1,30.0
3743,-1e-05,0.0,0.00052,-1e-05,-2e-05,-2e-05,-2e-05,-2e-05,1,30.0
3744,-1e-05,0.0,0.00052,-1e-05,-2e-05,-2e-05,-2e-05,-2e-05,1,30.0
3745,-1e-05,-2e-05,0.00013,-3e-05,-3e-05,-2e-05,-2e-05,-1e-05,1,30.0
3746,-1e-05,-2e-05,-2e-05,-3e-05,-2e-05,-2e-05,1e-05,-2e-05,1,30.0
3747,-1e-05,-2e-05,-2e-05,-3e-05,-2e-05,-2e-05,1e-05,-2e-05,1,30.0
3748,-1e-05,-2e-05,-2e-05,-3e-05,-2e-05,-2e-05,1e-05,-2e-05,1,30.0
3749,-1e-05,-2e-05,-2e-05,-3e-05,-2e-05,-2e-05,1e-05,-2e-05,1,30.0
3750,-1e-05,-2e-05,-2e-05,-3e-05,-2e-05,-2e-05,1e-05,-2e-05,1,30.0
3751,-1e-05,-2e-05,-2e-05,-3e-05,-2e-05,-2e-05,1e-05,-2e-05,1,30.0
3752,-1e-05,-2e-05,-2e-05,-3e-05,-2e-05,-2e-05,1e-05,-2e-05,1,30.0
3753,-1e-05,-2e-05,-2e-05,-3e-05,-2e-05,-2e-05,1e-05,-2e-05,1,30.0
3754,-1e-05,-2e-05,-2e-05,-3e-05,-2e-05,-2e-05,1e-05,-2e-05,1,30.0
3755,-1e-05,-2e-05,-2e-05,-3e-05,-2e-05,-2e-05,1e-05,-2e-05,1,30.0
3756,-1e-05,-2e-05,-2e-05,-3e-05,-2e-05,-2e-05,1e-05,-2e-05,1,30.0
3757,-1e-05,-2e-05,-2e-05,-3e-05,-2e-05,-2e-05,1e-05,-2e-05,1,30.0
3758,-1e-05,-2e-05,-2e-05,-3e-05,-2e-05,-2e-05,1e-05,-2e-05,1,30.0
3759,-1e-05,-2e-05,-2e-05,-3e-05,-2e-05,-2e-05,1e-05,-2e-05,1,30.0
3760,-2e-05,-1e-05,-5e-05,-4e-05,-2e-05,-2e-05,1e-05,-1e-05,1,30.0
3761,0.0,0.0,-0.0001,-5e-05,-4e-05,-1e-05,-1e-05,-1e-05,1,30.0
3762,0.0,0.0,-0.0001,-5e-05,-4e-05,-1e-05,-1e-05,-1e-05,1,30.0
3763,0.0,0.0,-0.0001,-5e-05,-4e-05,-1e-05,-1e-05,-1e-05,1,30.0
3764,0.0,0.0,-0.0001,-5e-05,-4e-05,-1e-05,-1e-05,-1e-05,1,30.0
3765,0.0,0.0,-0.0001,-5e-05,-4e-05,-1e-05,-1e-05,-1e-05,1,30.0
3766,0.0,0.0,-0.0001,-5e-05,-4e-05,-1e-05,-1e-05,-1e-05,1,30.0
3767,0.0,0.0,-0.0001,-5e-05,-4e-05,-1e-05,-1e-05,-1e-05,1,30.0
3768,0.0,0.0,-0.0001,-5e-05,-4e-05,-1e-05,-1e-05,-1e-05,1,30.0
3769,0.0,0.0,-0.0001,-5e-05,-4e-05,-1e-05,-1e-05,-1e-05,1,30.0
3770,0.0,0.0,-0.0001,-5e-05,-4e-05,-1e-05,-1e-05,-1e-05,1,30.0
3771,0.0,0.0,-0.0001,-5e-05,-4e-05,-1e-05,-1e-05,-1e-05,1,30.0
3772,0.0,0.0,-0.0001,-5e-05,-4e-05,-1e-05,-1e-05,-1e-05,1,30.0
3773,0.0,0.0,-0.0001,-5e-05,-4e-05,-1e-05,-1e-05,-1e-05,1,30.0
3774,0.0,0.0,-0.0001,-5e-05,-4e-05,-1e-05,-1e-05,-1e-05,1,30.0
3775,0.0,0.0,-0.0001,-5e-05,-4e-05,-1e-05,-1e-05,-1e-05,1,30.0
3776,0.0,0.0,-0.0001,-5e-05,-4e-05,-1e-05,-1e-05,-1e-05,1,30.0
3777,0.0,0.0,-0.0001,-5e-05,-4e-05,-1e-05,-1e-05,-1e-05,1,30.0
3778,0.0,0.0,-0.0001,-5e-05,-4e-05,-1e-05,-1e-05,-1e-05,1,30.0
3779,0.0,0.0,-0.0001,-5e-05,-4e-05,-1e-05,-1e-05,-1e-05,1,30.0
3780,0.0,0.0,-0.0001,-5e-05,-4e-05,-1e-05,-1e-05,-1e-05,1,30.0
3781,0.0,0.0,-0.0001,-5e-05,-4e-05,-1e-05,-1e-05,-1e-05,1,30.0
3782,1e-05,1e-05,-0.0001,-2e-05,-1e-05,-1e-05,1e-05,-2e-05,1,30.0
3783,-2e-05,-5e-05,-0.00014,2e-05,-1e-05,0.0,-2e-05,-1e-05,1,30.0
3784,-2e-05,-5e-05,-0.00014,2e-05,-1e-05,0.0,-2e-05,-1e-05,1,30.0
3785,-2e-05,-5e-05,-0.00014,2e-05,-1e-05,0.0,-2e-05,-1e-05,1,30.0
3786,-2e-05,-5e-05,-0.00014,2e-05,-1e-05,0.0,-2e-05,-1e-05,1,30.0
3788,-2e-05,-5e-05,-0.00014,2e-05,-1e-05,0.0,-2e-05,-1e-05,1,30.0
3789,-2e-05,-5e-05,-0.00014,2e-05,-1e-05,0.0,-2e-05,-1e-05,1,30.0
3790,-2e-05,-5e-05,-0.00014,2e-05,-1e-05,0.0,-2e-05,-1e-05,1,30.0
3791,-2e-05,-5e-05,-0.00014,2e-05,-1e-05,0.0,-2e-05,-1e-05,1,30.0
3792,-2e-05,-5e-05,-0.00014,2e-05,-1e-05,0.0,-2e-05,-1e-05,1,30.0
3793,-2e-05,-5e-05,-0.00014,2e-05,-1e-05,0.0,-2e-05,-1e-05,1,30.0
3794,-2e-05,-5e-05,-0.00014,2e-05,-1e-05,0.0,-2e-05,-1e-05,1,30.0
3795,-2e-05,-5e-05,-0.00014,2e-05,-1e-05,0.0,-2e-05,-1e-05,1,30.0
3796,-2e-05,-5e-05,-0.00014,2e-05,-1e-05,0.0,-2e-05,-1e-05,1,30.0
3797,-2e-05,-5e-05,-0.00014,2e-05,-1e-05,0.0,-2e-05,-1e-05,1,30.0
3798,-2e-05,-5e-05,-0.00014,2e-05,-1e-05,0.0,-2e-05,-1e-05,1,30.0
3799,-2e-05,-5e-05,-0.00014,2e-05,-1e-05,0.0,-2e-05,-1e-05,1,30.0
3800,-2e-05,-5e-05,-0.00014,2e-05,-1e-05,0.0,-2e-05,-1e-05,1,30.0
3801,-2e-05,-5e-05,-0.00014,2e-05,-1e-05,0.0,-2e-05,-1e-05,1,30.0
3802,-2e-05,-5e-05,-0.00014,2e-05,-1e-05,0.0,-2e-05,-1e-05,1,30.0
3803,-2e-05,-5e-05,-0.00014,2e-05,-1e-05,0.0,-2e-05,-1e-05,1,30.0
3804,-2e-05,-5e-05,-0.00014,2e-05,-1e-05,0.0,-2e-05,-1e-05,1,30.0
3805,-1e-05,0.0,8e-05,2e-05,2e-05,9e-05,-2e-05,0.0,1,30.0
3806,0.0,0.0,-7e-05,-1e-05,-2e-05,-3e-05,1e-05,0.0,1,30.0
3807,0.0,0.0,-7e-05,-1e-05,-2e-05,-3e-05,1e-05,0.0,1,30.0
3808,0.0,0.0,-7e-05,-1e-05,-2e-05,-3e-05,1e-05,0.0,1,30.0
3809,0.0,0.0,-7e-05,-1e-05,-2e-05,-3e-05,1e-05,0.0,1,30.0
3810,0.0,0.0,-7e-05,-1e-05,-2e-05,-3e-05,1e-05,0.0,1,30.0
3811,0.0,0.0,-7e-05,-1e-05,-2e-05,-3e-05,1e-05,0.0,1,30.0
3812,0.0,0.0,-7e-05,-1e-05,-2e-05,-3e-05,1e-05,0.0,1,30.0
3813,0.0,0.0,-7e-05,-1e-05,-2e-05,-3e-05,1e-05,0.0,1,30.0
3814,0.0,0.0,-7e-05,-1e-05,-2e-05,-3e-05,1e-05,0.0,1,30.0
3815,0.0,0.0,-7e-05,-1e-05,-2e-05,-3e-05,1e-05,0.0,1,30.0
3816,0.0,0.0,-7e-05,-1e-05,-2e-05,-3e-05,1e-05,0.0,1,30.0
3817,0.0,0.0,-7e-05,-1e-05,-2e-05,-3e-05,1e-05,0.0,1,30.0
3818,0.0,0.0,-7e-05,-1e-05,-2e-05,-3e-05,1e-05,0.0,1,30.0
3819,-1e-05,-1e-05,3e-05,0.0,0.0,2e-05,1e-05,0.0,1,30.0
3820,-2e-05,-2e-05,-0.00013,8e-05,0.0,4e-05,1e-05,0.0,1,30.0
3821,-2e-05,-2e-05,-0.00013,8e-05,0.0,4e-05,1e-05,0.0,1,30.0
3822,-2e-05,-2e-05,-0.00013,8e-05,0.0,4e-05,1e-05,0.0,1,30.0
3823,-2e-05,-2e-05,-0.00013,8e-05,0.0,4e-05,1e-05,0.0,1,30.0
3824,-2e-05,-2e-05,-0.00013,8e-05,0.0,4e-05,1e-05,0.0,1,30.0
3825,-2e-05,-2e-05,-0.00013,8e-05,0.0,4e-05,1e-05,0.0,1,30.0
3826,-2e-05,-2e-05,-0.00013,8e-05,0.0,4e-05,1e-05,0.0,1,30.0
3827,-2e-05,-2e-05,-0.00013,8e-05,0.0,4e-05,1e-05,0.0,1,30.0
3828,-2e-05,-2e-05,-0.00013,8e-05,0.0,4e-05,1e-05,0.0,1,30.0
3829,-2e-05,-2e-05,-0.00013,8e-05,0.0,4e-05,1e-05,0.0,1,30.0
3830,-2e-05,-2e-05,-0.00013,8e-05,0.0,4e-05,1e-05,0.0,1,30.0
3831,-2e-05,-2e-05,-0.00013,8e-05,0.0,4e-05,1e-05,0.0,1,30.0
3832,-2e-05,-2e-05,-0.00013,8e-05,0.0,4e-05,1e-05,0.0,1,30.0
3833,-2e-05,-2e-05,-0.00013,8e-05,0.0,4e-05,1e-05,0.0,1,30.0
3834,-2e-05,-2e-05,-0.00013,8e-05,0.0,4e-05,1e-05,0.0,1,30.0
3835,-2e-05,-2e-05,-0.00013,8e-05,0.0,4e-05,1e-05,0.0,1,30.0
3836,-2e-05,-2e-05,-0.00013,8e-05,0.0,4e-05,1e-05,0.0,1,30.0
3838,-2e-05,-2e-05,-0.00013,8e-05,0.0,4e-05,1e-05,0.0,1,30.0
3839,-2e-05,-2e-05,-0.00013,8e-05,0.0,4e-05,1e-05,0.0,1,30.0
3840,-2e-05,-2e-05,-0.00013,8e-05,0.0,4e-05,1e-05,0.0,1,30.0
3841,-2e-05,-2e-05,-0.00013,8e-05,0.0,4e-05,1e-05,0.0,1,30.0
3842,-1e-05,-3e-05,-5e-05,-4e-05,0.0,0.0,-4e-05,-1e-05,1,30.0
3843,-1e-05,-1e-05,-1e-05,-5e-05,1e-05,-3e-05,0.0,-1e-05,1,30.0
3844,-1e-05,-1e-05,-1e-05,-5e-05,1e-05,-3e-05,0.0,-1e-05,1,30.0
3845,-1e-05,-1e-05,-1e-05,-5e-05,1e-05,-3e-05,0.0,-1e-05,1,30.0
3846,-1e-05,-1e-05,-1e-05,-5e-05,1e-05,-3e-05,0.0,-1e-05,1,30.0
3847,-1e-05,-1e-05,-1e-05,-5e-05,1e-05,-3e-05,0.0,-1e-05,1,30.0
3848,-1e-05,-1e-05,-1e-05,-5e-05,1e-05,-3e-05,0.0,-1e-05,1,30.0
3849,-1e-05,-1e-05,-1e-05,-5e-05,1e-05,-3e-05,0.0,-1e-05,1,30.0
3850,-1e-05,-1e-05,-1e-05,-5e-05,1e-05,-3e-05,0.0,-1e-05,1,30.0
3851,-1e-05,-1e-05,-1e-05,-5e-05,1e-05,-3e-05,0.0,-1e-05,1,30.0
3852,-1e-05,-1e-05,-1e-05,-5e-05,1e-05,-3e-05,0.0,-1e-05,1,30.0
3853,-1e-05,-1e-05,-1e-05,-5e-05,1e-05,-3e-05,0.0,-1e-05,1,30.0
3854,-1e-05,-1e-05,-1e-05,-5e-05,1e-05,-3e-05,0.0,-1e-05,1,30.0
3855,-1e-05,-1e-05,-1e-05,-5e-05,1e-05,-3e-05,0.0,-1e-05,1,30.0
3856,-1e-05,-1e-05,-1e-05,-5e-05,1e-05,-3e-05,0.0,-1e-05,1,30.0
3857,-1e-05,-1e-05,-1e-05,-5e-05,1e-05,-3e-05,0.0,-1e-05,1,30.0
3858,-1e-05,-1e-05,-1e-05,-5e-05,1e-05,-3e-05,0.0,-1e-05,1,30.0
3859,-1e-05,-1e-05,-1e-05,-5e-05,1e-05,-3e-05,0.0,-1e-05,1,30.0
3860,-1e-05,-1e-05,-1e-05,-5e-05,1e-05,-3e-05,0.0,-1e-05,1,30.0
3861,-1e-05,-1e-05,-1e-05,-5e-05,1e-05,-3e-05,0.0,-1e-05,1,30.0
3862,-1e-05,-1e-05,-1e-05,-5e-05,1e-05,-3e-05,0.0,-1e-05,1,30.0
3863,-1e-05,-1e-05,-1e-05,-5e-05,1e-05,-3e-05,0.0,-1e-05,1,30.0
3864,-1e-05,-1e-05,-1e-05,-5e-05,1e-05,-3e-05,0.0,-1e-05,1,30.0
3865,0.0,-1e-05,-2e-05,-4e-05,-1e-05,-2e-05,-1e-05,1e-05,1,30.0
3866,-1e-05,1e-05,-5e-05,-4e-05,-2e-05,0.0,1e-05,-1e-05,1,30.0
3867,-1e-05,1e-05,-5e-05,-4e-05,-2e-05,0.0,1e-05,-1e-05,1,30.0
3868,-1e-05,1e-05,-5e-05,-4e-05,-2e-05,0.0,1e-05,-1e-05,1,30.0
3869,-1e-05,1e-05,-5e-05,-4e-05,-2e-05,0.0,1e-05,-1e-05,1,30.0
3870,-1e-05,1e-05,-5e-05,-4e-05,-2e-05,0.0,1e-05,-1e-05,1,30.0
3871,-1e-05,1e-05,-5e-05,-4e-05,-2e-05,0.0,1e-05,-1e-05,1,30.0
3872,-1e-05,1e-05,-5e-05,-4e-05,-2e-05,0.0,1e-05,-1e-05,1,30.0
3873,-1e-05,1e-05,-5e-05,-4e-05,-2e-05,0.0,1e-05,-1e-05,1,30.0
3874,-1e-05,1e-05,-5e-05,-4e-05,-2e-05,0.0,1e-05,-1e-05,1,30.0
3875,-1e-05,1e-05,-5e-05,-4e-05,-2e-05,0.0,1e-05,-1e-05,1,30.0
3876,-1e-05,1e-05,-5e-05,-4e-05,-2e-05,0.0,1e-05,-1e-05,1,30.0
3877,-1e-05,1e-05,-5e-05,-4e-05,-2e-05,0.0,1e-05,-1e-05,1,30.0
3878,-1e-05,1e-05,-5e-05,-4e-05,-2e-05,0.0,1e-05,-1e-05,1,30.0
3879,-1e-05,-2e-05,-2e-05,-4e-05,0.0,-3e-05,1e-05,-2e-05,1,30.0
3880,-1e-05,-2e-05,-2e-05,-4e-05,0.0,-3e-05,1e-05,-2e-05,1,30.0
3881,-1e-05,-2e-05,-2e-05,-4e-05,0.0,-3e-05,1e-05,-2e-05,1,30.0
3882,-1e-05,-2e-05,-2e-05,-4e-05,0.0,-3e-05,1e-05,-2e-05,1,30.0
3883,-1e-05,-2e-05,-2e-05,-4e-05,0.0,-3e-05,1e-05,-2e-05,1,30.0
3884,-1e-05,-2e-05,-2e-05,-4e-05,0.0,-3e-05,1e-05,-2e-05,1,30.0
3885,-1e-05,-2e-05,-2e-05,-4e-05,0.0,-3e-05,1e-05,-2e-05,1,30.0
3886,-1e-05,-2e-05,-2e-05,-4e-05,0.0,-3e-05,1e-05,-2e-05,1,30.0
3888,-2e-05,-3e-05,-6e-05,3e-05,8e-05,-2e-05,-2e-05,-2e-05,1,30.0
3889,-2e-05,-3e-05,-6e-05,3e-05,8e-05,-2e-05,-2e-05,-2e-05,1,30.0
3890,-2e-05,-3e-05,-6e-05,3e-05,8e-05,-2e-05,-2e-05,-2e-05,1,30.0
3891,-2e-05,-3e-05,-6e-05,3e-05,8e-05,-2e-05,-2e-05,-2e-05,1,30.0
3892,-2e-05,-3e-05,-6e-05,3e-05,8e-05,-2e-05,-2e-05,-2e-05,1,30.0
3893,-2e-05,-3e-05,-6e-05,3e-05,8e-05,-2e-05,-2e-05,-2e-05,1,30.0
3894,-2e-05,-3e-05,-6e-05,3e-05,8e-05,-2e-05,-2e-05,-2e-05,1,30.0
3895,-2e-05,-3e-05,-6e-05,3e-05,8e-05,-2e-05,-2e-05,-2e-05,1,30.0
3896,-2e-05,-3e-05,-6e-05,3e-05,8e-05,-2e-05,-2e-05,-2e-05,1,30.0
3897,-2e-05,-3e-05,-6e-05,3e-05,8e-05,-2e-05,-2e-05,-2e-05,1,30.0
3898,-2e-05,-3e-05,-6e-05,3e-05,8e-05,-2e-05,-2e-05,-2e-05,1,30.0
3899,-2e-05,-3e-05,-6e-05,3e-05,8e-05,-2e-05,-2e-05,-2e-05,1,30.0
3900,-2e-05,-3e-05,-6e-05,3e-05,8e-05,-2e-05,-2e-05,-2e-05,1,30.0
3901,-2e-05,-3e-05,-6e-05,3e-05,8e-05,-2e-05,-2e-05,-2e-05,1,30.0
3902,0.0,0.0,3e-05,-5e-05,-2e-05,0.0,-2e-05,-1e-05,1,30.0
3903,2e-05,-1e-05,-3e-05,-5e-05,-4e-05,0.0,-2e-05,-3e-05,1,30.0
3904,2e-05,-1e-05,-3e-05,-5e-05,-4e-05,0.0,-2e-05,-3e-05,1,30.0
3905,2e-05,-1e-05,-3e-05,-5e-05,-4e-05,0.0,-2e-05,-3e-05,1,30.0
3906,2e-05,-1e-05,-3e-05,-5e-05,-4e-05,0.0,-2e-05,-3e-05,1,30.0
3907,2e-05,-1e-05,-3e-05,-5e-05,-4e-05,0.0,-2e-05,-3e-05,1,30.0
3908,2e-05,-1e-05,-3e-05,-5e-05,-4e-05,0.0,-2e-05,-3e-05,1,30.0
3909,2e-05,-1e-05,-3e-05,-5e-05,-4e-05,0.0,-2e-05,-3e-05,1,30.0
3910,2e-05,-1e-05,-3e-05,-5e-05,-4e-05,0.0,-2e-05,-3e-05,1,30.0
3911,2e-05,-1e-05,-3e-05,-5e-05,-4e-05,0.0,-2e-05,-3e-05,1,30.0
3912,2e-05,-1e-05,-3e-05,-5e-05,-4e-05,0.0,-2e-05,-3e-05,1,30.0
3913,2e-05,-1e-05,-3e-05,-5e-05,-4e-05,0.0,-2e-05,-3e-05,1,30.0
3914,2e-05,-1e-05,-3e-05,-5e-05,-4e-05,0.0,-2e-05,-3e-05,1,30.0
3915,2e-05,-1e-05,-3e-05,-5e-05,-4e-05,0.0,-2e-05,-3e-05,1,30.0
3916,2e-05,-1e-05,-3e-05,-5e-05,-4e-05,0.0,-2e-05,-3e-05,1,30.0
3917,2e-05,-1e-05,-3e-05,-5e-05,-4e-05,0.0,-2e-05,-3e-05,1,30.0
3918,2e-05,-1e-05,-3e-05,-5e-05,-4e-05,0.0,-2e-05,-3e-05,1,30.0
3919,2e-05,-1e-05,-3e-05,-5e-05,-4e-05,0.0,-2e-05,-3e-05,1,30.0
3920,2e-05,-1e-05,-3e-05,-5e-05,-4e-05,0.0,-2e-05,-3e-05,1,30.0
3921,2e-05,-1e-05,-3e-05,-5e-05,-4e-05,0.0,-2e-05,-3e-05,1,30.0
3922,2e-05,-1e-05,-3e-05,-5e-05,-4e-05,0.0,-2e-05,-3e-05,1,30.0
3923,2e-05,-1e-05,-3e-05,-5e-05,-4e-05,0.0,-2e-05,-3e-05,1,30.0
3924,2e-05,-1e-05,-3e-05,-5e-05,-4e-05,0.0,-2e-05,-3e-05,1,30.0
3925,0.0,-2e-05,-4e-05,-1e-05,3e-05,-2e-05,1e-05,0.0,1,30.0
3926,-1e-05,-2e-05,-5e-05,-5e-05,-6e-05,-1e-05,-4e-05,1e-05,1,30.0
3927,-1e-05,-2e-05,-5e-05,-5e-05,-6e-05,-1e-05,-4e-05,1e-05,1,30.0
3928,-1e-05,-2e-05,-5e-05,-5e-05,-6e-05,-1e-05,-4e-05,1e-05,1,30.0
3929,-1e-05,-2e-05,-5e-05,-5e-05,-6e-05,-1e-05,-4e-05,1e-05,1,30.0
3930,-1e-05,-2e-05,-5e-05,-5e-05,-6e-05,-1e-05,-4e-05,1e-05,1,30.0
3931,-1e-05,-2e-05,-5e-05,-5e-05,-6e-05,-1e-05,-4e-05,1e-05,1,30.0
3932,-1e-05,-2e-05,-5e-05,-5e-05,-6e-05,-1e-05,-4e-05,1e-05,1,30.0
3933,-1e-05,-2e-05,-5e-05,-5e-05,-6e-05,-1e-05,-4e-05,1e-05,1,30.0
3934,-1e-05,-2e-05,-5e-05,-5e-05,-6e-05,-1e-05,-4e-05,1e-05,1,30.0
3935,-1e-05,-2e-05,-5e-05,-5e-05,-6e-05,-1e-05,-4e-05,1e-05,1,30.0
3936,-1e-05,-2e-05,-5e-05,-5e-05,-6e-05,-1e-05,-4e-05,1e-05,1,30.0
3938,-1e-05,-2e-05,-5e-05,-5e-05,-6e-05,-1e-05,-4e-05,1e-05,1,30.0
3939,0.0,0.0,0.0,0.0,-3e-05,0.0,1e-05,-1e-05,1,30.0
3940,0.0,0.0,0.0,0.0,-3e-05,0.0,1e-05,-1e-05,1,30.0
3941,0.0,0.0,0.0,0.0,-3e-05,0.0,1e-05,-1e-05,1,30.0
3942,0.0,0.0,0.0,0.0,-3e-05,0.0,1e-05,-1e-05,1,30.0
3943,0.0,0.0,0.0,0.0,-3e-05,0.0,1e-05,-1e-05,1,30.0
3944,0.0,0.0,0.0,0.0,-3e-05,0.0,1e-05,-1e-05,1,30.0
3945,0.0,0.0,0.0,0.0,-3e-05,0.0,1e-05,-1e-05,1,30.0
3946,0.0,0.0,0.0,0.0,-3e-05,0.0,1e-05,-1e-05,1,30.0
3947,-1e-05,-1e-05,2e-05,0.0,-1e-05,2e-05,-1e-05,0.0,1,30.0
3948,-1e-05,-1e-05,2e-05,0.0,-1e-05,2e-05,-1e-05,0.0,1,30.0
3949,-1e-05,-1e-05,2e-05,0.0,-1e-05,2e-05,-1e-05,0.0,1,30.0
3950,-1e-05,-1e-05,2e-05,0.0,-1e-05,2e-05,-1e-05,0.0,1,30.0
3951,-1e-05,-1e-05,2e-05,0.0,-1e-05,2e-05,-1e-05,0.0,1,30.0
3952,-1e-05,-1e-05,2e-05,0.0,-1e-05,2e-05,-1e-05,0.0,1,30.0
3953,-1e-05,-1e-05,2e-05,0.0,-1e-05,2e-05,-1e-05,0.0,1,30.0
3954,-1e-05,-1e-05,2e-05,0.0,-1e-05,2e-05,-1e-05,0.0,1,30.0
3955,-1e-05,-1e-05,2e-05,0.0,-1e-05,2e-05,-1e-05,0.0,1,30.0
3956,-1e-05,-1e-05,2e-05,0.0,-1e-05,2e-05,-1e-05,0.0,1,30.0
3957,-1e-05,-1e-05,2e-05,0.0,-1e-05,2e-05,-1e-05,0.0,1,30.0
3958,-1e-05,-1e-05,2e-05,0.0,-1e-05,2e-05,-1e-05,0.0,1,30.0
3959,-1e-05,-1e-05,2e-05,0.0,-1e-05,2e-05,-1e-05,0.0,1,30.0
3960,-1e-05,-1e-05,2e-05,0.0,-1e-05,2e-05,-1e-05,0.0,1,30.0
3961,-1e-05,-1e-05,2e-05,0.0,-1e-05,2e-05,-1e-05,0.0,1,30.0
3962,-1e-05,-1e-05,2e-05,0.0,-1e-05,2e-05,-1e-05,0.0,1,30.0
3963,1e-05,3e-05,0.00031,0.0,1e-05,4e-05,-2e-05,-2e-05,1,30.0
3964,-1e-05,-2e-05,-0.00065,-8e-05,-1e-05,-2e-05,-3e-05,0.0,1,30.0
3966,-1e-05,-2e-05,-0.00065,-8e-05,-1e-05,-2e-05,-3e-05,0.0,1,30.0
3967,-1e-05,-2e-05,-0.00065,-8e-05,-1e-05,-2e-05,-3e-05,0.0,1,30.0
3968,-1e-05,-2e-05,-0.00065,-8e-05,-1e-05,-2e-05,-3e-05,0.0,1,30.0
3969,-1e-05,-2e-05,-0.00065,-8e-05,-1e-05,-2e-05,-3e-05,0.0,1,30.0
3970,-1e-05,-2e-05,-0.00065,-8e-05,-1e-05,-2e-05,-3e-05,0.0,1,30.0
3971,-1e-05,-2e-05,-0.00065,-8e-05,-1e-05,-2e-05,-3e-05,0.0,1,30.0
3972,-1e-05,-2e-05,-0.00065,-8e-05,-1e-05,-2e-05,-3e-05,0.0,1,30.0
3973,-1e-05,-2e-05,-0.00065,-8e-05,-1e-05,-2e-05,-3e-05,0.0,1,30.0
3974,-1e-05,-2e-05,-0.00065,-8e-05,-1e-05,-2e-05,-3e-05,0.0,1,30.0
3975,-1e-05,-2e-05,-0.00065,-8e-05,-1e-05,-2e-05,-3e-05,0.0,1,30.0
3976,-1e-05,-2e-05,-0.00065,-8e-05,-1e-05,-2e-05,-3e-05,0.0,1,30.0
3977,-1e-05,-2e-05,-0.00065,-8e-05,-1e-05,-2e-05,-3e-05,0.0,1,30.0
3978,-1e-05,-2e-05,-0.00065,-8e-05,-1e-05,-2e-05,-3e-05,0.0,1,30.0
3979,-1e-05,-2e-05,-0.00065,-8e-05,-1e-05,-2e-05,-3e-05,0.0,1,30.0
3980,-1e-05,-2e-05,-0.00065,-8e-05,-1e-05,-2e-05,-3e-05,0.0,1,30.0
3981,-1e-05,-2e-05,-0.00065,-8e-05,-1e-05,-2e-05,-3e-05,0.0,1,30.0
3982,-1e-05,-2e-05,-0.00065,-8e-05,-1e-05,-2e-05,-3e-05,0.0,1,30.0
3983,-1e-05,-2e-05,-0.00065,-8e-05,-1e-05,-2e-05,-3e-05,0.0,1,30.0
3984,-1e-05,-2e-05,-0.00065,-8e-05,-1e-05,-2e-05,-3e-05,0.0,1,30.0
3985,-2e-05,1e-05,9e-05,-0.00018,-1e-05,-3e-05,-2e-05,0.0,1,30.0
3986,-2e-05,1e-05,9e-05,-0.00018,-1e-05,-3e-05,-2e-05,0.0,1,30.0
3988,-1e-05,-3e-05,4e-05,-5e-05,-2e-05,-1e-05,0.0,-3e-05,1,30.0
3989,-1e-05,-3e-05,4e-05,-5e-05,-2e-05,-1e-05,0.0,-3e-05,1,30.0
3990,-1e-05,-3e-05,4e-05,-5e-05,-2e-05,-1e-05,0.0,-3e-05,1,30.0
3991,-1e-05,-3e-05,4e-05,-5e-05,-2e-05,-1e-05,0.0,-3e-05,1,30.0
3992,-1e-05,-3e-05,4e-05,-5e-05,-2e-05,-1e-05,0.0,-3e-05,1,30.0
3993,-1e-05,-3e-05,4e-05,-5e-05,-2e-05,-1e-05,0.0,-3e-05,1,30.0
3994,-1e-05,-3e-05,4e-05,-5e-05,-2e-05,-1e-05,0.0,-3e-05,1,30.0
3995,-1e-05,-3e-05,4e-05,-5e-05,-2e-05,-1e-05,0.0,-3e-05,1,30.0
3996,-1e-05,-3e-05,4e-05,-5e-05,-2e-05,-1e-05,0.0,-3e-05,1,30.0
3997,-1e-05,-3e-05,4e-05,-5e-05,-2e-05,-1e-05,0.0,-3e-05,1,30.0
3998,-1e-05,-3e-05,4e-05,-5e-05,-2e-05,-1e-05,0.0,-3e-05,1,30.0
3999,-2e-05,0.0,-0.00013,0.0,-1e-05,1e-05,-2e-05,-1e-05,1,30.0
4000,-2e-05,0.0,-0.00013,0.0,-1e-05,1e-05,-2e-05,-1e-05,1,30.0
4001,-2e-05,0.0,-0.00013,0.0,-1e-05,1e-05,-2e-05,-1e-05,1,30.0
4002,-2e-05,0.0,-0.00013,0.0,-1e-05,1e-05,-2e-05,-1e-05,1,30.0
4003,-2e-05,0.0,-0.00013,0.0,-1e-05,1e-05,-2e-05,-1e-05,1,30.0
4004,-2e-05,0.0,-0.00013,0.0,-1e-05,1e-05,-2e-05,-1e-05,1,30.0
4005,-2e-05,0.0,-0.00013,0.0,-1e-05,1e-05,-2e-05,-1e-05,1,30.0
4006,-2e-05,0.0,-0.00013,0.0,-1e-05,1e-05,-2e-05,-1e-05,1,30.0
4007,-1e-05,0.0,0.00013,-3e-05,0.0,5e-05,0.0,1e-05,1,30.0
4008,-1e-05,0.0,0.00013,-3e-05,0.0,5e-05,0.0,1e-05,1,30.0
4009,-1e-05,0.0,0.00013,-3e-05,0.0,5e-05,0.0,1e-05,1,30.0
4010,-1e-05,0.0,0.00013,-3e-05,0.0,5e-05,0.0,1e-05,1,30.0
4011,-1e-05,0.0,0.00013,-3e-05,0.0,5e-05,0.0,1e-05,1,30.0
4012,-1e-05,0.0,0.00013,-3e-05,0.0,5e-05,0.0,1e-05,1,30.0
4013,-1e-05,0.0,0.00013,-3e-05,0.0,5e-05,0.0,1e-05,1,30.0
4014,-1e-05,0.0,0.00013,-3e-05,0.0,5e-05,0.0,1e-05,1,30.0
4015,-1e-05,0.0,0.00013,-3e-05,0.0,5e-05,0.0,1e-05,1,30.0
4016,-1e-05,0.0,0.00013,-3e-05,0.0,5e-05,0.0,1e-05,1,30.0
4017,-1e-05,0.0,0.00013,-3e-05,0.0,5e-05,0.0,1e-05,1,30.0
4018,-1e-05,0.0,0.00013,-3e-05,0.0,5e-05,0.0,1e-05,1,30.0
4019,-1e-05,0.0,0.00013,-3e-05,0.0,5e-05,0.0,1e-05,1,30.0
4020,-1e-05,0.0,0.00013,-3e-05,0.0,5e-05,0.0,1e-05,1,30.0
4021,-1e-05,0.0,0.00013,-3e-05,0.0,5e-05,0.0,1e-05,1,30.0
4022,-1e-05,0.0,0.00013,-3e-05,0.0,5e-05,0.0,1e-05,1,30.0
4023,-2e-05,-3e-05,-0.00016,-0.00022,-2e-05,-1e-05,-2e-05,0.0,1,30.0
4024,-1e-05,-2e-05,8e-05,2e-05,2e-05,3e-05,2e-05,-3e-05,1,30.0
4026,-1e-05,-2e-05,8e-05,2e-05,2e-05,3e-05,2e-05,-3e-05,1,30.0
4027,-1e-05,-2e-05,8e-05,2e-05,2e-05,3e-05,2e-05,-3e-05,1,30.0
4028,-1e-05,-2e-05,8e-05,2e-05,2e-05,3e-05,2e-05,-3e-05,1,30.0
4029,-1e-05,-2e-05,8e-05,2e-05,2e-05,3e-05,2e-05,-3e-05,1,30.0
4030,-1e-05,-2e-05,8e-05,2e-05,2e-05,3e-05,2e-05,-3e-05,1,30.0
4031,-1e-05,-2e-05,8e-05,2e-05,2e-05,3e-05,2e-05,-3e-05,1,30.0
4032,-1e-05,-2e-05,8e-05,2e-05,2e-05,3e-05,2e-05,-3e-05,1,30.0
4033,-1e-05,-2e-05,8e-05,2e-05,2e-05,3e-05,2e-05,-3e-05,1,30.0
4034,-1e-05,-2e-05,8e-05,2e-05,2e-05,3e-05,2e-05,-3e-05,1,30.0
4035,-1e-05,-2e-05,8e-05,2e-05,2e-05,3e-05,2e-05,-3e-05,1,30.0
4036,-1e-05,-2e-05,8e-05,2e-05,2e-05,3e-05,2e-05,-3e-05,1,30.0
4038,-1e-05,-2e-05,8e-05,2e-05,2e-05,3e-05,2e-05,-3e-05,1,30.0
4039,-1e-05,-2e-05,8e-05,2e-05,2e-05,3e-05,2e-05,-3e-05,1,30.0
4040,-1e-05,-2e-05,8e-05,2e-05,2e-05,3e-05,2e-05,-3e-05,1,30.0
4041,-1e-05,-2e-05,8e-05,2e-05,2e-05,3e-05,2e-05,-3e-05,1,30.0
4042,-1e-05,-2e-05,8e-05,2e-05,2e-05,3e-05,2e-05,-3e-05,1,30.0
4043,-1e-05,-2e-05,8e-05,2e-05,2e-05,3e-05,2e-05,-3e-05,1,30.0
4044,-1e-05,-2e-05,8e-05,2e-05,2e-05,3e-05,2e-05,-3e-05,1,30.0
4045,-1e-05,-2e-05,8e-05,2e-05,2e-05,3e-05,2e-05,-3e-05,1,30.0
4046,-1e-05,3e-05,3e-05,1e-05,1e-05,6e-05,-1e-05,0.0,1,30.0
4047,-1e-05,3e-05,3e-05,1e-05,1e-05,6e-05,-1e-05,0.0,1,30.0
4048,-1e-05,3e-05,3e-05,1e-05,1e-05,6e-05,-1e-05,0.0,1,30.0
4049,-1e-05,3e-05,3e-05,1e-05,1e-05,6e-05,-1e-05,0.0,1,30.0
4050,-1e-05,3e-05,3e-05,1e-05,1e-05,6e-05,-1e-05,0.0,1,30.0
4051,-1e-05,3e-05,3e-05,1e-05,1e-05,6e-05,-1e-05,0.0,1,30.0
4052,0.0,-2e-05,5e-05,-4e-05,-1e-05,-2e-05,-2e-05,0.0,1,30.0
4053,0.0,-2e-05,5e-05,-4e-05,-1e-05,-2e-05,-2e-05,0.0,1,30.0
4054,0.0,-2e-05,5e-05,-4e-05,-1e-05,-2e-05,-2e-05,0.0,1,30.0
4055,0.0,-2e-05,5e-05,-4e-05,-1e-05,-2e-05,-2e-05,0.0,1,30.0
4056,0.0,-2e-05,5e-05,-4e-05,-1e-05,-2e-05,-2e-05,0.0,1,30.0
4057,0.0,-2e-05,5e-05,-4e-05,-1e-05,-2e-05,-2e-05,0.0,1,30.0
4058,0.0,-2e-05,5e-05,-4e-05,-1e-05,-2e-05,-2e-05,0.0,1,30.0
4059,-1e-05,-2e-05,-4e-05,0.0,-1e-05,-2e-05,-3e-05,0.0,1,30.0
4060,-1e-05,-2e-05,-4e-05,0.0,-1e-05,-2e-05,-3e-05,0.0,1,30.0
4061,-1e-05,-2e-05,-4e-05,0.0,-1e-05,-2e-05,-3e-05,0.0,1,30.0
4062,-1e-05,-2e-05,-4e-05,0.0,-1e-05,-2e-05,-3e-05,0.0,1,30.0
4063,-1e-05,-2e-05,-4e-05,0.0,-1e-05,-2e-05,-3e-05,0.0,1,30.0
4064,-1e-05,-2e-05,-4e-05,0.0,-1e-05,-2e-05,-3e-05,0.0,1,30.0
4065,-1e-05,-2e-05,-4e-05,0.0,-1e-05,-2e-05,-3e-05,0.0,1,30.0
4066,-1e-05,-2e-05,-4e-05,0.0,-1e-05,-2e-05,-3e-05,0.0,1,30.0
4067,-3e-05,-2e-05,9e-05,4e-05,-1e-05,-3e-05,-3e-05,-3e-05,1,30.0
4068,-3e-05,-2e-05,9e-05,4e-05,-1e-05,-3e-05,-3e-05,-3e-05,1,30.0
4069,-3e-05,-2e-05,9e-05,4e-05,-1e-05,-3e-05,-3e-05,-3e-05,1,30.0
4070,-3e-05,-2e-05,9e-05,4e-05,-1e-05,-3e-05,-3e-05,-3e-05,1,30.0
4071,-3e-05,-2e-05,9e-05,4e-05,-1e-05,-3e-05,-3e-05,-3e-05,1,30.0
4072,-3e-05,-2e-05,9e-05,4e-05,-1e-05,-3e-05,-3e-05,-3e-05,1,30.0
4073,-3e-05,-2e-05,9e-05,4e-05,-1e-05,-3e-05,-3e-05,-3e-05,1,30.0
4074,-3e-05,-2e-05,9e-05,4e-05,-1e-05,-3e-05,-3e-05,-3e-05,1,30.0
4075,-3e-05,-2e-05,9e-05,4e-05,-1e-05,-3e-05,-3e-05,-3e-05,1,30.0
4076,-3e-05,-2e-05,9e-05,4e-05,-1e-05,-3e-05,-3e-05,-3e-05,1,30.0
4077,-3e-05,-2e-05,9e-05,4e-05,-1e-05,-3e-05,-3e-05,-3e-05,1,30.0
4078,-3e-05,-2e-05,9e-05,4e-05,-1e-05,-3e-05,-3e-05,-3e-05,1,30.0
4079,-3e-05,-2e-05,9e-05,4e-05,-1e-05,-3e-05,-3e-05,-3e-05,1,30.0
4080,-3e-05,-2e-05,9e-05,4e-05,-1e-05,-3e-05,-3e-05,-3e-05,1,30.0
4081,-3e-05,-2e-05,9e-05,4e-05,-1e-05,-3e-05,-3e-05,-3e-05,1,30.0
4082,-3e-05,-2e-05,9e-05,4e-05,-1e-05,-3e-05,-3e-05,-3e-05,1,30.0
4083,-2e-05,0.0,2e-05,4e-05,2e-05,-2e-05,5e-05,3e-05,1,30.0
4084,0.0,-2e-05,9e-05,-3e-05,-1e-05,-2e-05,3e-05,-3e-05,1,30.0
4085,0.0,-2e-05,9e-05,-3e-05,-1e-05,-2e-05,3e-05,-3e-05,1,30.0
4086,0.0,-2e-05,9e-05,-3e-05,-1e-05,-2e-05,3e-05,-3e-05,1,30.0
4088,0.0,-2e-05,9e-05,-3e-05,-1e-05,-2e-05,3e-05,-3e-05,1,30.0
4089,0.0,-2e-05,9e-05,-3e-05,-1e-05,-2e-05,3e-05,-3e-05,1,30.0
4090,0.0,-2e-05,9e-05,-3e-05,-1e-05,-2e-05,3e-05,-3e-05,1,30.0
4091,0.0,-2e-05,9e-05,-3e-05,-1e-05,-2e-05,3e-05,-3e-05,1,30.0
4092,0.0,-2e-05,9e-05,-3e-05,-1e-05,-2e-05,3e-05,-3e-05,1,30.0
4093,0.0,-2e-05,9e-05,-3e-05,-1e-05,-2e-05,3e-05,-3e-05,1,30.0
4094,0.0,-2e-05,9e-05,-3e-05,-1e-05,-2e-05,3e-05,-3e-05,1,30.0
4095,0.0,-2e-05,9e-05,-3e-05,-1e-05,-2e-05,3e-05,-3e-05,1,30.0
4096,0.0,-2e-05,9e-05,-3e-05,-1e-05,-2e-05,3e-05,-3e-05,1,30.0
4097,0.0,-2e-05,9e-05,-3e-05,-1e-05,-2e-05,3e-05,-3e-05,1,30.0
4098,0.0,-2e-05,9e-05,-3e-05,-1e-05,-2e-05,3e-05,-3e-05,1,30.0
4099,0.0,-2e-05,9e-05,-3e-05,-1e-05,-2e-05,3e-05,-3e-05,1,30.0
4100,0.0,-2e-05,9e-05,-3e-05,-1e-05,-2e-05,3e-05,-3e-05,1,30.0
4101,0.0,-2e-05,9e-05,-3e-05,-1e-05,-2e-05,3e-05,-3e-05,1,30.0
4102,0.0,-2e-05,9e-05,-3e-05,-1e-05,-2e-05,3e-05,-3e-05,1,30.0
4103,0.0,-2e-05,9e-05,-3e-05,-1e-05,-2e-05,3e-05,-3e-05,1,30.0
4104,0.0,-2e-05,9e-05,-3e-05,-1e-05,-2e-05,3e-05,-3e-05,1,30.0
4105,-1e-05,0.0,-8e-05,2e-05,-1e-05,-7e-05,1e-05,2e-05,1,30.0
4106,-1e-05,-2e-05,-2e-05,-1e-05,-2e-05,-3e-05,-4e-05,0.0,1,30.0
4107,-1e-05,-2e-05,-2e-05,-1e-05,-2e-05,-3e-05,-4e-05,0.0,1,30.0
4108,-1e-05,-2e-05,-2e-05,-1e-05,-2e-05,-3e-05,-4e-05,0.0,1,30.0
4109,-1e-05,-2e-05,-2e-05,-1e-05,-2e-05,-3e-05,-4e-05,0.0,1,30.0
4110,-1e-05,-2e-05,-2e-05,-1e-05,-2e-05,-3e-05,-4e-05,0.0,1,30.0
4111,-1e-05,-2e-05,-2e-05,-1e-05,-2e-05,-3e-05,-4e-05,0.0,1,30.0
4112,-1e-05,-2e-05,-2e-05,-1e-05,-2e-05,-3e-05,-4e-05,0.0,1,30.0
4113,-1e-05,-2e-05,-2e-05,-1e-05,-2e-05,-3e-05,-4e-05,0.0,1,30.0
4114,-1e-05,-2e-05,-2e-05,-1e-05,-2e-05,-3e-05,-4e-05,0.0,1,30.0
4115,-1e-05,-2e-05,-2e-05,-1e-05,-2e-05,-3e-05,-4e-05,0.0,1,30.0
4116,-1e-05,-2e-05,-2e-05,-1e-05,-2e-05,-3e-05,-4e-05,0.0,1,30.0
4117,-1e-05,-2e-05,-2e-05,-1e-05,-2e-05,-3e-05,-4e-05,0.0,1,30.0
4118,-1e-05,-2e-05,-2e-05,-1e-05,-2e-05,-3e-05,-4e-05,0.0,1,30.0
4119,-1e-05,-2e-05,-1e-05,-4e-05,-5e-05,-4e-05,0.0,-1e-05,1,30.0
4120,-1e-05,-2e-05,-1e-05,-4e-05,-5e-05,-4e-05,0.0,-1e-05,1,30.0
4121,-1e-05,-2e-05,-1e-05,-4e-05,-5e-05,-4e-05,0.0,-1e-05,1,30.0
4122,-1e-05,-2e-05,-1e-05,-4e-05,-5e-05,-4e-05,0.0,-1e-05,1,30.0
4123,-1e-05,-2e-05,-1e-05,-4e-05,-5e-05,-4e-05,0.0,-1e-05,1,30.0
4124,-1e-05,-2e-05,-1e-05,-4e-05,-5e-05,-4e-05,0.0,-1e-05,1,30.0
4125,-1e-05,-2e-05,-1e-05,-4e-05,-5e-05,-4e-05,0.0,-1e-05,1,30.0
4126,-1e-05,-2e-05,-1e-05,-4e-05,-5e-05,-4e-05,0.0,-1e-05,1,30.0
4127,-3e-05,-3e-05,-5e-05,4e-05,1e-05,-3e-05,1e-05,1e-05,1,30.0
4128,-3e-05,-3e-05,-5e-05,4e-05,1e-05,-3e-05,1e-05,1e-05,1,30.0
4129,-3e-05,-3e-05,-5e-05,4e-05,1e-05,-3e-05,1e-05,1e-05,1,30.0
4130,-3e-05,-3e-05,-5e-05,4e-05,1e-05,-3e-05,1e-05,1e-05,1,30.0
4131,-3e-05,-3e-05,-5e-05,4e-05,1e-05,-3e-05,1e-05,1e-05,1,30.0
4132,-3e-05,-3e-05,-5e-05,4e-05,1e-05,-3e-05,1e-05,1e-05,1,30.0
4133,-3e-05,-3e-05,-5e-05,4e-05,1e-05,-3e-05,1e-05,1e-05,1,30.0
4134,-3e-05,-3e-05,-5e-05,4e-05,1e-05,-3e-05,1e-05,1e-05,1,30.0
4135,-3e-05,-3e-05,-5e-05,4e-05,1e-05,-3e-05,1e-05,1e-05,1,30.0
4136,-3e-05,-3e-05,-5e-05,4e-05,1e-05,-3e-05,1e-05,1e-05,1,30.0
4138,-3e-05,-3e-05,-5e-05,4e-05,1e-05,-3e-05,1e-05,1e-05,1,30.0
4139,-3e-05,-3e-05,-5e-05,4e-05,1e-05,-3e-05,1e-05,1e-05,1,30.0
4140,-3e-05,-3e-05,-5e-05,4e-05,1e-05,-3e-05,1e-05,1e-05,1,30.0
4141,-3e-05,-3e-05,-5e-05,4e-05,1e-05,-3e-05,1e-05,1e-05,1,30.0
4142,-3e-05,-3e-05,-5e-05,4e-05,1e-05,-3e-05,1e-05,1e-05,1,30.0
4143,-1e-05,0.0,-5e-05,9e-05,-4e-05,1e-05,-7e-05,-1e-05,1,30.0
4144,1e-05,1e-05,-1e-05,-0.00011,-5e-05,1e-05,0.0,-1e-05,1,30.0
4146,1e-05,1e-05,-1e-05,-0.00011,-5e-05,1e-05,0.0,-1e-05,1,30.0
4147,1e-05,1e-05,-1e-05,-0.00011,-5e-05,1e-05,0.0,-1e-05,1,30.0
4148,1e-05,1e-05,-1e-05,-0.00011,-5e-05,1e-05,0.0,-1e-05,1,30.0
4149,1e-05,1e-05,-1e-05,-0.00011,-5e-05,1e-05,0.0,-1e-05,1,30.0
4150,1e-05,1e-05,-1e-05,-0.00011,-5e-05,1e-05,0.0,-1e-05,1,30.0
4151,1e-05,1e-05,-1e-05,-0.00011,-5e-05,1e-05,0.0,-1e-05,1,30.0
4152,1e-05,1e-05,-1e-05,-0.00011,-5e-05,1e-05,0.0,-1e-05,1,30.0
4153,1e-05,1e-05,-1e-05,-0.00011,-5e-05,1e-05,0.0,-1e-05,1,30.0
4154,1e-05,1e-05,-1e-05,-0.00011,-5e-05,1e-05,0.0,-1e-05,1,30.0
4155,1e-05,1e-05,-1e-05,-0.00011,-5e-05,1e-05,0.0,-1e-05,1,30.0
4156,1e-05,1e-05,-1e-05,-0.00011,-5e-05,1e-05,0.0,-1e-05,1,30.0
4157,1e-05,1e-05,-1e-05,-0.00011,-5e-05,1e-05,0.0,-1e-05,1,30.0
4158,1e-05,1e-05,-1e-05,-0.00011,-5e-05,1e-05,0.0,-1e-05,1,30.0
4159,1e-05,1e-05,-1e-05,-0.00011,-5e-05,1e-05,0.0,-1e-05,1,30.0
4160,1e-05,1e-05,-1e-05,-0.00011,-5e-05,1e-05,0.0,-1e-05,1,30.0
4161,1e-05,1e-05,-1e-05,-0.00011,-5e-05,1e-05,0.0,-1e-05,1,30.0
4162,1e-05,1e-05,-1e-05,-0.00011,-5e-05,1e-05,0.0,-1e-05,1,30.0
4163,1e-05,1e-05,-1e-05,-0.00011,-5e-05,1e-05,0.0,-1e-05,1,30.0
4164,1e-05,1e-05,-1e-05,-0.00011,-5e-05,1e-05,0.0,-1e-05,1,30.0
4165,-1e-05,1e-05,-5e-05,7e-05,1e-05,2e-05,-1e-05,0.0,1,30.0
4166,-1e-05,0.0,2e-05,4e-05,0.0,-5e-05,0.0,0.0,1,30.0
4167,-1e-05,0.0,2e-05,4e-05,0.0,-5e-05,0.0,0.0,1,30.0
4168,-1e-05,0.0,2e-05,4e-05,0.0,-5e-05,0.0,0.0,1,30.0
4169,-1e-05,0.0,2e-05,4e-05,0.0,-5e-05,0.0,0.0,1,30.0
4170,-1e-05,0.0,2e-05,4e-05,0.0,-5e-05,0.0,0.0,1,30.0
4171,-1e-05,0.0,2e-05,4e-05,0.0,-5e-05,0.0,0.0,1,30.0
4172,-1e-05,0.0,2e-05,4e-05,0.0,-5e-05,0.0,0.0,1,30.0
4173,-1e-05,0.0,2e-05,4e-05,0.0,-5e-05,0.0,0.0,1,30.0
4174,-1e-05,0.0,2e-05,4e-05,0.0,-5e-05,0.0,0.0,1,30.0
4175,-1e-05,0.0,2e-05,4e-05,0.0,-5e-05,0.0,0.0,1,30.0
4176,-1e-05,0.0,2e-05,4e-05,0.0,-5e-05,0.0,0.0,1,30.0
4177,-1e-05,0.0,2e-05,4e-05,0.0,-5e-05,0.0,0.0,1,30.0
4178,-1e-05,0.0,2e-05,4e-05,0.0,-5e-05,0.0,0.0,1,30.0
4179,-1e-05,0.0,2e-05,4e-05,0.0,-5e-05,0.0,0.0,1,30.0
4180,-1e-05,0.0,2e-05,4e-05,0.0,-5e-05,0.0,0.0,1,30.0
4181,-1e-05,0.0,2e-05,4e-05,0.0,-5e-05,0.0,0.0,1,30.0
4182,-1e-05,0.0,2e-05,4e-05,0.0,-5e-05,0.0,0.0,1,30.0
4183,-1e-05,0.0,2e-05,4e-05,0.0,-5e-05,0.0,0.0,1,30.0
4184,-1e-05,0.0,2e-05,4e-05,0.0,-5e-05,0.0,0.0,1,30.0
4185,-1e-05,0.0,2e-05,4e-05,0.0,-5e-05,0.0,0.0,1,30.0
4186,-1e-05,0.0,2e-05,4e-05,0.0,-5e-05,0.0,0.0,1,30.0
4188,1e-05,-1e-05,4e-05,4e-05,1e-05,3e-05,1e-05,0.0,1,30.0
4189,-1e-05,-1e-05,-1e-05,-4e-05,-2e-05,-3e-05,-2e-05,-3e-05,1,30.0
4191,-1e-05,-1e-05,-1e-05,-4e-05,-2e-05,-3e-05,-2e-05,-3e-05,1,30.0
4192,-1e-05,-1e-05,-1e-05,-4e-05,-2e-05,-3e-05,-2e-05,-3e-05,1,30.0
4193,-1e-05,-1e-05,-1e-05,-4e-05,-2e-05,-3e-05,-2e-05,-3e-05,1,30.0
4194,-1e-05,-1e-05,-1e-05,-4e-05,-2e-05,-3e-05,-2e-05,-3e-05,1,30.0
4195,-1e-05,-1e-05,-1e-05,-4e-05,-2e-05,-3e-05,-2e-05,-3e-05,1,30.0
4196,-1e-05,-1e-05,-1e-05,-4e-05,-2e-05,-3e-05,-2e-05,-3e-05,1,30.0
4197,-1e-05,-1e-05,-1e-05,-4e-05,-2e-05,-3e-05,-2e-05,-3e-05,1,30.0
4198,-1e-05,-1e-05,-1e-05,-4e-05,-2e-05,-3e-05,-2e-05,-3e-05,1,30.0
4199,-1e-05,-1e-05,-1e-05,-4e-05,-2e-05,-3e-05,-2e-05,-3e-05,1,30.0
4200,-1e-05,-1e-05,-1e-05,-4e-05,-2e-05,-3e-05,-2e-05,-3e-05,1,30.0
4201,-1e-05,-1e-05,-1e-05,-4e-05,-2e-05,-3e-05,-2e-05,-3e-05,1,30.0
4202,-3e-05,-2e-05,2e-05,4e-05,-3e-05,0.0,7e-05,0.0,1,30.0
4203,-3e-05,-2e-05,2e-05,4e-05,-3e-05,0.0,7e-05,0.0,1,30.0
4204,-3e-05,-2e-05,2e-05,4e-05,-3e-05,0.0,7e-05,0.0,1,30.0
4205,-3e-05,-2e-05,2e-05,4e-05,-3e-05,0.0,7e-05,0.0,1,30.0
4206,-3e-05,-2e-05,2e-05,4e-05,-3e-05,0.0,7e-05,0.0,1,30.0
4207,-3e-05,-2e-05,2e-05,4e-05,-3e-05,0.0,7e-05,0.0,1,30.0
4208,-3e-05,-2e-05,2e-05,4e-05,-3e-05,0.0,7e-05,0.0,1,30.0
4209,0.0,4e-05,0.00052,3e-05,-4e-05,-7e-05,0.00015,0.0,1,30.0
4210,2e-05,1e-05,-0.00059,-5e-05,0.0,2e-05,-3e-05,1e-05,1,30.0
4212,2e-05,1e-05,-0.00059,-5e-05,0.0,2e-05,-3e-05,1e-05,1,30.0
4213,2e-05,1e-05,-0.00059,-5e-05,0.0,2e-05,-3e-05,1e-05,1,30.0
4214,2e-05,1e-05,-0.00059,-5e-05,0.0,2e-05,-3e-05,1e-05,1,30.0
4215,2e-05,1e-05,-0.00059,-5e-05,0.0,2e-05,-3e-05,1e-05,1,30.0
4216,2e-05,1e-05,-0.00059,-5e-05,0.0,2e-05,-3e-05,1e-05,1,30.0
4217,2e-05,1e-05,-0.00059,-5e-05,0.0,2e-05,-3e-05,1e-05,1,30.0
4218,2e-05,1e-05,-0.00059,-5e-05,0.0,2e-05,-3e-05,1e-05,1,30.0
4219,2e-05,1e-05,-0.00059,-5e-05,0.0,2e-05,-3e-05,1e-05,1,30.0
4220,2e-05,1e-05,-0.00059,-5e-05,0.0,2e-05,-3e-05,1e-05,1,30.0
4221,2e-05,1e-05,-0.00059,-5e-05,0.0,2e-05,-3e-05,1e-05,1,30.0
4222,2e-05,1e-05,-0.00059,-5e-05,0.0,2e-05,-3e-05,1e-05,1,30.0
4223,2e-05,1e-05,-0.00059,-5e-05,0.0,2e-05,-3e-05,1e-05,1,30.0
4224,2e-05,1e-05,-0.00059,-5e-05,0.0,2e-05,-3e-05,1e-05,1,30.0
4225,-1e-05,-5e-05,-5e-05,-4e-05,0.0,-1e-05,-6e-05,-1e-05,1,30.0
4226,-2e-05,0.0,0.00017,3e-05,-3e-05,-2e-05,-1e-05,-1e-05,1,30.0
4227,-2e-05,0.0,0.00017,3e-05,-3e-05,-2e-05,-1e-05,-1e-05,1,30.0
4228,-2e-05,0.0,0.00017,3e-05,-3e-05,-2e-05,-1e-05,-1e-05,1,30.0
4229,-2e-05,0.0,0.00017,3e-05,-3e-05,-2e-05,-1e-05,-1e-05,1,30.0
4230,-2e-05,0.0,0.00017,3e-05,-3e-05,-2e-05,-1e-05,-1e-05,1,30.0
4231,-2e-05,0.0,0.00017,3e-05,-3e-05,-2e-05,-1e-05,-1e-05,1,30.0
4232,-2e-05,0.0,0.00017,3e-05,-3e-05,-2e-05,-1e-05,-1e-05,1,30.0
4233,-2e-05,0.0,0.00017,3e-05,-3e-05,-2e-05,-1e-05,-1e-05,1,30.0
4234,-2e-05,0.0,0.00017,3e-05,-3e-05,-2e-05,-1e-05,-1e-05,1,30.0
4235,-2e-05,0.0,0.00017,3e-05,-3e-05,-2e-05,-1e-05,-1e-05,1,30.0
4236,-2e-05,0.0,0.00017,3e-05,-3e-05,-2e-05,-1e-05,-1e-05,1,30.0
4238,-2e-05,0.0,0.00017,3e-05,-3e-05,-2e-05,-1e-05,-1e-05,1,30.0
4239,-2e-05,0.0,0.00017,3e-05,-3e-05,-2e-05,-1e-05,-1e-05,1,30.0
4240,-2e-05,0.0,0.00017,3e-05,-3e-05,-2e-05,-1e-05,-1e-05,1,30.0
4241,-2e-05,0.0,0.00017,3e-05,-3e-05,-2e-05,-1e-05,-1e-05,1,30.0
4242,-2e-05,0.0,0.00017,3e-05,-3e-05,-2e-05,-1e-05,-1e-05,1,30.0
4243,-2e-05,0.0,0.00017,3e-05,-3e-05,-2e-05,-1e-05,-1e-05,1,30.0
4244,-2e-05,0.0,0.00017,3e-05,-3e-05,-2e-05,-1e-05,-1e-05,1,30.0
4245,-2e-05,0.0,0.00017,3e-05,-3e-05,-2e-05,-1e-05,-1e-05,1,30.0
4246,-2e-05,0.0,0.00017,3e-05,-3e-05,-2e-05,-1e-05,-1e-05,1,30.0
4247,-2e-05,0.0,0.00017,3e-05,-3e-05,-2e-05,-1e-05,-1e-05,1,30.0
4248,0.0,3e-05,-2e-05,4e-05,-1e-05,-1e-05,0.0001,-1e-05,1,30.0
4249,-1e-05,-3e-05,2e-05,0.0001,-1e-05,-5e-05,-1e-05,0.0,1,30.0
4250,-1e-05,-3e-05,2e-05,0.0001,-1e-05,-5e-05,-1e-05,0.0,1,30.0
4251,-1e-05,-3e-05,2e-05,0.0001,-1e-05,-5e-05,-1e-05,0.0,1,30.0
4252,-1e-05,-3e-05,2e-05,0.0001,-1e-05,-5e-05,-1e-05,0.0,1,30.0
4253,-1e-05,-3e-05,2e-05,0.0001,-1e-05,-5e-05,-1e-05,0.0,1,30.0
4254,-1e-05,-3e-05,2e-05,0.0001,-1e-05,-5e-05,-1e-05,0.0,1,30.0
4255,-1e-05,-3e-05,2e-05,0.0001,-1e-05,-5e-05,-1e-05,0.0,1,30.0
4256,-1e-05,-3e-05,2e-05,0.0001,-1e-05,-5e-05,-1e-05,0.0,1,30.0
4257,-1e-05,-3e-05,2e-05,0.0001,-1e-05,-5e-05,-1e-05,0.0,1,30.0
4258,-1e-05,-3e-05,2e-05,0.0001,-1e-05,-5e-05,-1e-05,0.0,1,30.0
4259,-1e-05,-3e-05,2e-05,0.0001,-1e-05,-5e-05,-1e-05,0.0,1,30.0
4260,-1e-05,-3e-05,2e-05,0.0001,-1e-05,-5e-05,-1e-05,0.0,1,30.0
4261,-1e-05,-1e-05,0.00012,7e-05,-1e-05,0.0,-7e-05,0.0,1,30.0
4263,-1e-05,-1e-05,0.00012,7e-05,-1e-05,0.0,-7e-05,0.0,1,30.0
4264,-1e-05,-1e-05,0.00012,7e-05,-1e-05,0.0,-7e-05,0.0,1,30.0
4265,-1e-05,-1e-05,0.00012,7e-05,-1e-05,0.0,-7e-05,0.0,1,30.0
4266,-1e-05,-1e-05,0.00012,7e-05,-1e-05,0.0,-7e-05,0.0,1,30.0
4267,-1e-05,-1e-05,0.00012,7e-05,-1e-05,0.0,-7e-05,0.0,1,30.0
4268,-1e-05,-1e-05,0.00012,7e-05,-1e-05,0.0,-7e-05,0.0,1,30.0
4269,-1e-05,-1e-05,0.00012,7e-05,-1e-05,0.0,-7e-05,0.0,1,30.0
4270,-3e-05,-3e-05,9e-05,-3e-05,0.0,0.0,0.0,0.0,1,30.0
4271,-3e-05,-3e-05,9e-05,-3e-05,0.0,0.0,0.0,0.0,1,30.0
4272,-3e-05,-3e-05,9e-05,-3e-05,0.0,0.0,0.0,0.0,1,30.0
4273,-3e-05,-3e-05,9e-05,-3e-05,0.0,0.0,0.0,0.0,1,30.0
4274,-3e-05,-3e-05,9e-05,-3e-05,0.0,0.0,0.0,0.0,1,30.0
4275,-3e-05,-3e-05,9e-05,-3e-05,0.0,0.0,0.0,0.0,1,30.0
4276,-3e-05,-3e-05,9e-05,-3e-05,0.0,0.0,0.0,0.0,1,30.0
4277,-3e-05,-3e-05,9e-05,-3e-05,0.0,0.0,0.0,0.0,1,30.0
4278,-3e-05,-3e-05,9e-05,-3e-05,0.0,0.0,0.0,0.0,1,30.0
4279,-3e-05,-3e-05,9e-05,-3e-05,0.0,0.0,0.0,0.0,1,30.0
4280,-3e-05,-3e-05,9e-05,-3e-05,0.0,0.0,0.0,0.0,1,30.0
4281,-3e-05,-3e-05,9e-05,-3e-05,0.0,0.0,0.0,0.0,1,30.0
4282,-3e-05,-3e-05,9e-05,-3e-05,0.0,0.0,0.0,0.0,1,30.0
4283,-3e-05,-3e-05,9e-05,-3e-05,0.0,0.0,0.0,0.0,1,30.0
4284,-3e-05,-3e-05,9e-05,-3e-05,0.0,0.0,0.0,0.0,1,30.0
4285,-2e-05,-3e-05,0.0,4e-05,0.0,-1e-05,-1e-05,0.0,1,30.0
4286,-2e-05,-3e-05,0.0,4e-05,0.0,-1e-05,-1e-05,0.0,1,30.0
4288,0.0,1e-05,2e-05,-5e-05,-3e-05,0.0,-3e-05,0.0,1,30.0
4289,0.0,1e-05,2e-05,-5e-05,-3e-05,0.0,-3e-05,0.0,1,30.0
4290,0.0,1e-05,2e-05,-5e-05,-3e-05,0.0,-3e-05,0.0,1,30.0
4291,0.0,1e-05,2e-05,-5e-05,-3e-05,0.0,-3e-05,0.0,1,30.0
4292,0.0,1e-05,2e-05,-5e-05,-3e-05,0.0,-3e-05,0.0,1,30.0
4293,0.0,1e-05,2e-05,-5e-05,-3e-05,0.0,-3e-05,0.0,1,30.0
4294,0.0,1e-05,2e-05,-5e-05,-3e-05,0.0,-3e-05,0.0,1,30.0
4295,0.0,1e-05,2e-05,-5e-05,-3e-05,0.0,-3e-05,0.0,1,30.0
4296,0.0,1e-05,2e-05,-5e-05,-3e-05,0.0,-3e-05,0.0,1,30.0
4297,0.0,1e-05,2e-05,-5e-05,-3e-05,0.0,-3e-05,0.0,1,30.0
4298,0.0,1e-05,2e-05,-5e-05,-3e-05,0.0,-3e-05,0.0,1,30.0
4299,0.0,1e-05,2e-05,-5e-05,-3e-05,0.0,-3e-05,0.0,1,30.0
4300,0.0,1e-05,2e-05,-5e-05,-3e-05,0.0,-3e-05,0.0,1,30.0
4301,0.0,1e-05,2e-05,-5e-05,-3e-05,0.0,-3e-05,0.0,1,30.0
4302,0.0,1e-05,2e-05,-5e-05,-3e-05,0.0,-3e-05,0.0,1,30.0
4303,0.0,1e-05,2e-05,-5e-05,-3e-05,0.0,-3e-05,0.0,1,30.0
4304,0.0,1e-05,2e-05,-5e-05,-3e-05,0.0,-3e-05,0.0,1,30.0
4305,0.0,1e-05,2e-05,-5e-05,-3e-05,0.0,-3e-05,0.0,1,30.0
4306,0.0,1e-05,2e-05,-5e-05,-3e-05,0.0,-3e-05,0.0,1,30.0
4307,0.0,1e-05,2e-05,-5e-05,-3e-05,0.0,-3e-05,0.0,1,30.0
4308,0.0,-2e-05,-1e-05,-4e-05,2e-05,-1e-05,-5e-05,-2e-05,1,30.0
4309,-3e-05,-1e-05,9e-05,-4e-05,-2e-05,-1e-05,0.0,0.0,1,30.0
4310,-3e-05,-1e-05,9e-05,-4e-05,-2e-05,-1e-05,0.0,0.0,1,30.0
4311,-3e-05,-1e-05,9e-05,-4e-05,-2e-05,-1e-05,0.0,0.0,1,30.0
4312,-3e-05,-1e-05,9e-05,-4e-05,-2e-05,-1e-05,0.0,0.0,1,30.0
4313,-3e-05,-1e-05,9e-05,-4e-05,-2e-05,-1e-05,0.0,0.0,1,30.0
4314,-3e-05,-1e-05,9e-05,-4e-05,-2e-05,-1e-05,0.0,0.0,1,30.0
4315,-3e-05,-1e-05,9e-05,-4e-05,-2e-05,-1e-05,0.0,0.0,1,30.0
4316,-3e-05,-1e-05,9e-05,-4e-05,-2e-05,-1e-05,0.0,0.0,1,30.0
4317,-3e-05,-1e-05,9e-05,-4e-05,-2e-05,-1e-05,0.0,0.0,1,30.0
4318,-3e-05,-1e-05,9e-05,-4e-05,-2e-05,-1e-05,0.0,0.0,1,30.0
4319,-3e-05,-1e-05,9e-05,-4e-05,-2e-05,-1e-05,0.0,0.0,1,30.0
4320,-3e-05,-1e-05,9e-05,-4e-05,-2e-05,-1e-05,0.0,0.0,1,30.0
4321,0.0,-2e-05,-6e-05,-5e-05,-1e-05,-1e-05,-4e-05,-1e-05,1,30.0
4322,0.0,-2e-05,-6e-05,-5e-05,-1e-05,-1e-05,-4e-05,-1e-05,1,30.0
4323,0.0,-2e-05,-6e-05,-5e-05,-1e-05,-1e-05,-4e-05,-1e-05,1,30.0
4324,0.0,-2e-05,-6e-05,-5e-05,-1e-05,-1e-05,-4e-05,-1e-05,1,30.0
4325,0.0,-2e-05,-6e-05,-5e-05,-1e-05,-1e-05,-4e-05,-1e-05,1,30.0
4326,0.0,-2e-05,-6e-05,-5e-05,-1e-05,-1e-05,-4e-05,-1e-05,1,30.0
4327,0.0,-2e-05,-6e-05,-5e-05,-1e-05,-1e-05,-4e-05,-1e-05,1,30.0
4328,0.0,-2e-05,-6e-05,-5e-05,-1e-05,-1e-05,-4e-05,-1e-05,1,30.0
4329,0.0,-2e-05,-6e-05,-5e-05,-1e-05,-1e-05,-4e-05,-1e-05,1,30.0
4330,0.0,-2e-05,3e-05,-1e-05,1e-05,-2e-05,-2e-05,-2e-05,1,30.0
4331,0.0,-2e-05,3e-05,-1e-05,1e-05,-2e-05,-2e-05,-2e-05,1,30.0
4332,0.0,-2e-05,3e-05,-1e-05,1e-05,-2e-05,-2e-05,-2e-05,1,30.0
4333,0.0,-2e-05,3e-05,-1e-05,1e-05,-2e-05,-2e-05,-2e-05,1,30.0
4334,0.0,-2e-05,3e-05,-1e-05,1e-05,-2e-05,-2e-05,-2e-05,1,30.0
4335,0.0,-2e-05,3e-05,-1e-05,1e-05,-2e-05,-2e-05,-2e-05,1,30.0
4336,0.0,-2e-05,3e-05,-1e-05,1e-05,-2e-05,-2e-05,-2e-05,1,30.0
4338,0.0,-2e-05,3e-05,-1e-05,1e-05,-2e-05,-2e-05,-2e-05,1,30.0
4339,0.0,-2e-05,3e-05,-1e-05,1e-05,-2e-05,-2e-05,-2e-05,1,30.0
4340,0.0,-2e-05,3e-05,-1e-05,1e-05,-2e-05,-2e-05,-2e-05,1,30.0
4341,0.0,-2e-05,3e-05,-1e-05,1e-05,-2e-05,-2e-05,-2e-05,1,30.0
4342,0.0,-2e-05,3e-05,-1e-05,1e-05,-2e-05,-2e-05,-2e-05,1,30.0
4343,0.0,-2e-05,3e-05,-1e-05,1e-05,-2e-05,-2e-05,-2e-05,1,30.0
4344,0.0,-2e-05,3e-05,-1e-05,1e-05,-2e-05,-2e-05,-2e-05,1,30.0
4345,0.0,1e-05,0.0,-2e-05,-4e-05,0.0,-3e-05,-1e-05,1,30.0
4346,0.0,1e-05,0.0,-2e-05,-4e-05,0.0,-3e-05,-1e-05,1,30.0
4347,-2e-05,-3e-05,-2e-05,1e-05,-2e-05,-1e-05,-2e-05,-1e-05,1,30.0
4348,-2e-05,-3e-05,-2e-05,1e-05,-2e-05,-1e-05,-2e-05,-1e-05,1,30.0
4349,-2e-05,-3e-05,-2e-05,1e-05,-2e-05,-1e-05,-2e-05,-1e-05,1,30.0
4350,-2e-05,-3e-05,-2e-05,1e-05,-2e-05,-1e-05,-2e-05,-1e-05,1,30.0
4351,-2e-05,-3e-05,-2e-05,1e-05,-2e-05,-1e-05,-2e-05,-1e-05,1,30.0
4352,-2e-05,-3e-05,-2e-05,1e-05,-2e-05,-1e-05,-2e-05,-1e-05,1,30.0
4353,-2e-05,-3e-05,-2e-05,1e-05,-2e-05,-1e-05,-2e-05,-1e-05,1,30.0
4354,-2e-05,-3e-05,-2e-05,1e-05,-2e-05,-1e-05,-2e-05,-1e-05,1,30.0
4355,-2e-05,-3e-05,-2e-05,1e-05,-2e-05,-1e-05,-2e-05,-1e-05,1,30.0
4356,-2e-05,-3e-05,-2e-05,1e-05,-2e-05,-1e-05,-2e-05,-1e-05,1,30.0
4357,-2e-05,-3e-05,-2e-05,1e-05,-2e-05,-1e-05,-2e-05,-1e-05,1,30.0
4358,-2e-05,-3e-05,-2e-05,1e-05,-2e-05,-1e-05,-2e-05,-1e-05,1,30.0
4359,-2e-05,-3e-05,-2e-05,1e-05,-2e-05,-1e-05,-2e-05,-1e-05,1,30.0
4360,-2e-05,-3e-05,-2e-05,1e-05,-2e-05,-1e-05,-2e-05,-1e-05,1,30.0
4361,-2e-05,-3e-05,-2e-05,1e-05,-2e-05,-1e-05,-2e-05,-1e-05,1,30.0
4362,-2e-05,-3e-05,-2e-05,1e-05,-2e-05,-1e-05,-2e-05,-1e-05,1,30.0
4363,-2e-05,-3e-05,-2e-05,1e-05,-2e-05,-1e-05,-2e-05,-1e-05,1,30.0
4364,-2e-05,-3e-05,-2e-05,1e-05,-2e-05,-1e-05,-2e-05,-1e-05,1,30.0
4365,-2e-05,-3e-05,-2e-05,1e-05,-2e-05,-1e-05,-2e-05,-1e-05,1,30.0
4366,-2e-05,-3e-05,-2e-05,1e-05,-2e-05,-1e-05,-2e-05,-1e-05,1,30.0
4367,-2e-05,-3e-05,-2e-05,1e-05,-2e-05,-1e-05,-2e-05,-1e-05,1,30.0
4368,-1e-05,2e-05,0.00028,-4e-05,-5e-05,-3e-05,-1e-05,-1e-05,1,30.0
4369,-1e-05,2e-05,0.00028,-4e-05,-5e-05,-3e-05,-1e-05,-1e-05,1,30.0
4370,1e-05,0.0,0.00015,2e-05,-1e-05,-1e-05,0.0,-1e-05,1,30.0
4371,1e-05,0.0,0.00015,2e-05,-1e-05,-1e-05,0.0,-1e-05,1,30.0
4372,1e-05,0.0,0.00015,2e-05,-1e-05,-1e-05,0.0,-1e-05,1,30.0
4373,1e-05,0.0,0.00015,2e-05,-1e-05,-1e-05,0.0,-1e-05,1,30.0
4374,1e-05,0.0,0.00015,2e-05,-1e-05,-1e-05,0.0,-1e-05,1,30.0
4375,1e-05,0.0,0.00015,2e-05,-1e-05,-1e-05,0.0,-1e-05,1,30.0
4376,1e-05,0.0,0.00015,2e-05,-1e-05,-1e-05,0.0,-1e-05,1,30.0
4377,1e-05,0.0,0.00015,2e-05,-1e-05,-1e-05,0.0,-1e-05,1,30.0
4378,1e-05,0.0,0.00015,2e-05,-1e-05,-1e-05,0.0,-1e-05,1,30.0
4379,1e-05,0.0,0.00015,2e-05,-1e-05,-1e-05,0.0,-1e-05,1,30.0
4380,1e-05,0.0,0.00015,2e-05,-1e-05,-1e-05,0.0,-1e-05,1,30.0
4381,1e-05,0.0,0.00015,2e-05,-1e-05,-1e-05,0.0,-1e-05,1,30.0
4382,-2e-05,-2e-05,-6e-05,0.0,2e-05,-1e-05,-6e-05,0.0,1,30.0
4383,-2e-05,-2e-05,-6e-05,0.0,2e-05,-1e-05,-6e-05,0.0,1,30.0
4384,-2e-05,-2e-05,-6e-05,0.0,2e-05,-1e-05,-6e-05,0.0,1,30.0
4385,-2e-05,-2e-05,-6e-05,0.0,2e-05,-1e-05,-6e-05,0.0,1,30.0
4386,-2e-05,-2e-05,-6e-05,0.0,2e-05,-1e-05,-6e-05,0.0,1,30.0
4388,-2e-05,-2e-05,-6e-05,0.0,2e-05,-1e-05,-6e-05,0.0,1,30.0
4389,-2e-05,0.0,-0.0001,-0.00017,-3e-05,0.0,-1e-05,-2e-05,1,30.0
4390,-2e-05,0.0,-0.0001,-0.00017,-3e-05,0.0,-1e-05,-2e-05,1,30.0
4391,-2e-05,0.0,-0.0001,-0.00017,-3e-05,0.0,-1e-05,-2e-05,1,30.0
4392,-2e-05,0.0,-0.0001,-0.00017,-3e-05,0.0,-1e-05,-2e-05,1,30.0
4393,-2e-05,0.0,-0.0001,-0.00017,-3e-05,0.0,-1e-05,-2e-05,1,30.0
4394,-2e-05,0.0,-0.0001,-0.00017,-3e-05,0.0,-1e-05,-2e-05,1,30.0
4395,-2e-05,0.0,-0.0001,-0.00017,-3e-05,0.0,-1e-05,-2e-05,1,30.0
4396,-2e-05,0.0,-0.0001,-0.00017,-3e-05,0.0,-1e-05,-2e-05,1,30.0
4397,-2e-05,0.0,-0.0001,-0.00017,-3e-05,0.0,-1e-05,-2e-05,1,30.0
4398,-2e-05,0.0,-0.0001,-0.00017,-3e-05,0.0,-1e-05,-2e-05,1,30.0
4399,-2e-05,0.0,-0.0001,-0.00017,-3e-05,0.0,-1e-05,-2e-05,1,30.0
4400,-2e-05,0.0,-0.0001,-0.00017,-3e-05,0.0,-1e-05,-2e-05,1,30.0
4401,-2e-05,0.0,-0.0001,-0.00017,-3e-05,0.0,-1e-05,-2e-05,1,30.0
4402,-2e-05,0.0,-0.0001,-0.00017,-3e-05,0.0,-1e-05,-2e-05,1,30.0
4403,-2e-05,0.0,-0.0001,-0.00017,-3e-05,0.0,-1e-05,-2e-05,1,30.0
4404,-2e-05,0.0,-0.0001,-0.00017,-3e-05,0.0,-1e-05,-2e-05,1,30.0
4405,-2e-05,-4e-05,-4e-05,-2e-05,1e-05,-1e-05,1e-05,-2e-05,1,30.0
4406,-2e-05,-4e-05,-4e-05,-2e-05,1e-05,-1e-05,1e-05,-2e-05,1,30.0
4407,1e-05,1e-05,3e-05,2e-05,-1e-05,-1e-05,0.0,-1e-05,1,30.0
4408,1e-05,1e-05,3e-05,2e-05,-1e-05,-1e-05,0.0,-1e-05,1,30.0
4409,1e-05,1e-05,3e-05,2e-05,-1e-05,-1e-05,0.0,-1e-05,1,30.0
4410,1e-05,1e-05,3e-05,2e-05,-1e-05,-1e-05,0.0,-1e-05,1,30.0
4411,1e-05,1e-05,3e-05,2e-05,-1e-05,-1e-05,0.0,-1e-05,1,30.0
4412,1e-05,1e-05,3e-05,2e-05,-1e-05,-1e-05,0.0,-1e-05,1,30.0
4413,1e-05,1e-05,3e-05,2e-05,-1e-05,-1e-05,0.0,-1e-05,1,30.0
4414,1e-05,1e-05,3e-05,2e-05,-1e-05,-1e-05,0.0,-1e-05,1,30.0
4415,1e-05,1e-05,3e-05,2e-05,-1e-05,-1e-05,0.0,-1e-05,1,30.0
4416,1e-05,1e-05,3e-05,2e-05,-1e-05,-1e-05,0.0,-1e-05,1,30.0
4417,1e-05,1e-05,3e-05,2e-05,-1e-05,-1e-05,0.0,-1e-05,1,30.0
4418,1e-05,1e-05,3e-05,2e-05,-1e-05,-1e-05,0.0,-1e-05,1,30.0
4419,1e-05,1e-05,3e-05,2e-05,-1e-05,-1e-05,0.0,-1e-05,1,30.0
4420,1e-05,1e-05,3e-05,2e-05,-1e-05,-1e-05,0.0,-1e-05,1,30.0
4421,1e-05,1e-05,3e-05,2e-05,-1e-05,-1e-05,0.0,-1e-05,1,30.0
4422,1e-05,1e-05,3e-05,2e-05,-1e-05,-1e-05,0.0,-1e-05,1,30.0
4423,1e-05,1e-05,3e-05,2e-05,-1e-05,-1e-05,0.0,-1e-05,1,30.0
4424,1e-05,1e-05,3e-05,2e-05,-1e-05,-1e-05,0.0,-1e-05,1,30.0
4425,1e-05,1e-05,3e-05,2e-05,-1e-05,-1e-05,0.0,-1e-05,1,30.0
4426,1e-05,1e-05,3e-05,2e-05,-1e-05,-1e-05,0.0,-1e-05,1,30.0
4427,1e-05,1e-05,3e-05,2e-05,-1e-05,-1e-05,0.0,-1e-05,1,30.0
4428,-1e-05,-1e-05,-0.00011,4e-05,-1e-05,0.0,-1e-05,0.0,1,30.0
4429,-1e-05,0.0,-2e-05,-2e-05,-2e-05,-1e-05,-3e-05,1e-05,1,30.0
4430,-1e-05,0.0,-2e-05,-2e-05,-2e-05,-1e-05,-3e-05,1e-05,1,30.0
4431,-1e-05,0.0,-2e-05,-2e-05,-2e-05,-1e-05,-3e-05,1e-05,1,30.0
4432,-1e-05,0.0,-2e-05,-2e-05,-2e-05,-1e-05,-3e-05,1e-05,1,30.0
4433,-1e-05,0.0,-2e-05,-2e-05,-2e-05,-1e-05,-3e-05,1e-05,1,30.0
4434,-1e-05,0.0,-2e-05,-2e-05,-2e-05,-1e-05,-3e-05,1e-05,1,30.0
4435,-1e-05,0.0,-2e-05,-2e-05,-2e-05,-1e-05,-3e-05,1e-05,1,30.0
4436,-1e-05,0.0,-2e-05,-2e-05,-2e-05,-1e-05,-3e-05,1e-05,1,30.0
4439,-1e-05,0.0,-2e-05,-2e-05,-2e-05,-1e-05,-3e-05,1e-05,1,30.0
4440,-1e-05,0.0,-2e-05,-2e-05,-2e-05,-1e-05,-3e-05,1e-05,1,30.0
4441,-1e-05,0.0,-2e-05,-2e-05,-2e-05,-1e-05,-3e-05,1e-05,1,30.0
4442,-1e-05,-1e-05,-1e-05,5e-05,5e-05,0.0,0.0,0.0,1,30.0
4443,-1e-05,-1e-05,-1e-05,5e-05,5e-05,0.0,0.0,0.0,1,30.0
4444,-1e-05,-1e-05,-1e-05,5e-05,5e-05,0.0,0.0,0.0,1,30.0
4445,-1e-05,-1e-05,-1e-05,5e-05,5e-05,0.0,0.0,0.0,1,30.0
4446,-1e-05,-1e-05,-1e-05,5e-05,5e-05,0.0,0.0,0.0,1,30.0
4447,-1e-05,-1e-05,-1e-05,5e-05,5e-05,0.0,0.0,0.0,1,30.0
4448,-1e-05,-1e-05,-1e-05,5e-05,5e-05,0.0,0.0,0.0,1,30.0
4449,-1e-05,-3e-05,-2e-05,-3e-05,0.0,1e-05,1e-05,-1e-05,1,30.0
4450,-1e-05,-3e-05,-2e-05,-3e-05,0.0,1e-05,1e-05,-1e-05,1,30.0
4451,-1e-05,-3e-05,-2e-05,-3e-05,0.0,1e-05,1e-05,-1e-05,1,30.0
4452,-1e-05,-3e-05,-2e-05,-3e-05,0.0,1e-05,1e-05,-1e-05,1,30.0
4453,-1e-05,-3e-05,-2e-05,-3e-05,0.0,1e-05,1e-05,-1e-05,1,30.0
4454,-1e-05,-3e-05,-2e-05,-3e-05,0.0,1e-05,1e-05,-1e-05,1,30.0
4455,-1e-05,-3e-05,-2e-05,-3e-05,0.0,1e-05,1e-05,-1e-05,1,30.0
4456,-1e-05,-3e-05,-2e-05,-3e-05,0.0,1e-05,1e-05,-1e-05,1,30.0
4457,-1e-05,-3e-05,-2e-05,-3e-05,0.0,1e-05,1e-05,-1e-05,1,30.0
4458,-1e-05,-3e-05,-2e-05,-3e-05,0.0,1e-05,1e-05,-1e-05,1,30.0
4459,-1e-05,-3e-05,-2e-05,-3e-05,0.0,1e-05,1e-05,-1e-05,1,30.0
4460,-1e-05,-3e-05,-2e-05,-3e-05,0.0,1e-05,1e-05,-1e-05,1,30.0
4461,-1e-05,-3e-05,-2e-05,-3e-05,0.0,1e-05,1e-05,-1e-05,1,30.0
4462,-1e-05,-3e-05,-2e-05,-3e-05,0.0,1e-05,1e-05,-1e-05,1,30.0
4463,-1e-05,-3e-05,-2e-05,-3e-05,0.0,1e-05,1e-05,-1e-05,1,30.0
4464,-1e-05,-3e-05,-2e-05,-3e-05,0.0,1e-05,1e-05,-1e-05,1,30.0
4465,-1e-05,-1e-05,-5e-05,-0.0001,-1e-05,0.0,-1e-05,0.0,1,30.0
4466,-1e-05,-1e-05,-5e-05,-0.0001,-1e-05,0.0,-1e-05,0.0,1,30.0
4467,-1e-05,0.0,3e-05,6e-05,1e-05,-1e-05,-1e-05,-2e-05,1,30.0
4468,-1e-05,0.0,3e-05,6e-05,1e-05,-1e-05,-1e-05,-2e-05,1,30.0
4469,-1e-05,0.0,3e-05,6e-05,1e-05,-1e-05,-1e-05,-2e-05,1,30.0
4470,-1e-05,0.0,3e-05,6e-05,1e-05,-1e-05,-1e-05,-2e-05,1,30.0
4471,-1e-05,0.0,3e-05,6e-05,1e-05,-1e-05,-1e-05,-2e-05,1,30.0
4472,-1e-05,0.0,3e-05,6e-05,1e-05,-1e-05,-1e-05,-2e-05,1,30.0
4473,-1e-05,0.0,3e-05,6e-05,1e-05,-1e-05,-1e-05,-2e-05,1,30.0
4474,-1e-05,0.0,3e-05,6e-05,1e-05,-1e-05,-1e-05,-2e-05,1,30.0
4475,-1e-05,0.0,3e-05,6e-05,1e-05,-1e-05,-1e-05,-2e-05,1,30.0
4476,-1e-05,0.0,3e-05,6e-05,1e-05,-1e-05,-1e-05,-2e-05,1,30.0
4477,-1e-05,0.0,3e-05,6e-05,1e-05,-1e-05,-1e-05,-2e-05,1,30.0
4478,-1e-05,0.0,3e-05,6e-05,1e-05,-1e-05,-1e-05,-2e-05,1,30.0
4479,-1e-05,0.0,3e-05,6e-05,1e-05,-1e-05,-1e-05,-2e-05,1,30.0
4480,-1e-05,0.0,3e-05,6e-05,1e-05,-1e-05,-1e-05,-2e-05,1,30.0
4481,-1e-05,0.0,3e-05,6e-05,1e-05,-1e-05,-1e-05,-2e-05,1,30.0
4482,-1e-05,0.0,3e-05,6e-05,1e-05,-1e-05,-1e-05,-2e-05,1,30.0
4483,-1e-05,0.0,3e-05,6e-05,1e-05,-1e-05,-1e-05,-2e-05,1,30.0
4484,-1e-05,0.0,3e-05,6e-05,1e-05,-1e-05,-1e-05,-2e-05,1,30.0
4485,-1e-05,0.0,3e-05,6e-05,1e-05,-1e-05,-1e-05,-2e-05,1,30.0
4487,-1e-05,0.0,3e-05,6e-05,1e-05,-1e-05,-1e-05,-2e-05,1,30.0
4489,0.0,-1e-05,-2e-05,0.0,-1e-05,-1e-05,-1e-05,-2e-05,1,30.0
4490,0.0,-1e-05,-2e-05,0.0,-1e-05,-1e-05,-1e-05,-2e-05,1,30.0
4491,0.0,-1e-05,-2e-05,0.0,-1e-05,-1e-05,-1e-05,-2e-05,1,30.0
4492,0.0,-1e-05,-2e-05,0.0,-1e-05,-1e-05,-1e-05,-2e-05,1,30.0
4493,0.0,-1e-05,-2e-05,0.0,-1e-05,-1e-05,-1e-05,-2e-05,1,30.0
4494,0.0,-1e-05,-2e-05,0.0,-1e-05,-1e-05,-1e-05,-2e-05,1,30.0
4495,0.0,-1e-05,-2e-05,0.0,-1e-05,-1e-05,-1e-05,-2e-05,1,30.0
4496,0.0,-1e-05,-2e-05,0.0,-1e-05,-1e-05,-1e-05,-2e-05,1,30.0
4497,0.0,-1e-05,-2e-05,0.0,-1e-05,-1e-05,-1e-05,-2e-05,1,30.0
4498,0.0,-1e-05,-2e-05,0.0,-1e-05,-1e-05,-1e-05,-2e-05,1,30.0
4499,0.0,-1e-05,-2e-05,0.0,-1e-05,-1e-05,-1e-05,-2e-05,1,30.0
4500,0.0,-1e-05,-2e-05,0.0,-1e-05,-1e-05,-1e-05,-2e-05,1,30.0
4501,0.0,-1e-05,-2e-05,0.0,-1e-05,-1e-05,-1e-05,-2e-05,1,30.0
4502,-3e-05,0.0,1e-05,0.00011,0.0,1e-05,-2e-05,-2e-05,1,30.0
4503,-2e-05,0.0,-2e-05,-0.00014,0.0,-1e-05,2e-05,1e-05,1,30.0
4504,-2e-05,0.0,-2e-05,-0.00014,0.0,-1e-05,2e-05,1e-05,1,30.0
4505,-2e-05,0.0,-2e-05,-0.00014,0.0,-1e-05,2e-05,1e-05,1,30.0
4506,-2e-05,0.0,-2e-05,-0.00014,0.0,-1e-05,2e-05,1e-05,1,30.0
4507,-2e-05,0.0,-2e-05,-0.00014,0.0,-1e-05,2e-05,1e-05,1,30.0
4508,-2e-05,0.0,-2e-05,-0.00014,0.0,-1e-05,2e-05,1e-05,1,30.0
4509,-1e-05,-1e-05,-3e-05,6e-05,2e-05,-1e-05,-1e-05,-2e-05,1,30.0
4510,-1e-05,-1e-05,-3e-05,6e-05,2e-05,-1e-05,-1e-05,-2e-05,1,30.0
4511,-1e-05,-1e-05,-3e-05,6e-05,2e-05,-1e-05,-1e-05,-2e-05,1,30.0
4512,-1e-05,-1e-05,-3e-05,6e-05,2e-05,-1e-05,-1e-05,-2e-05,1,30.0
4513,-1e-05,-1e-05,-3e-05,6e-05,2e-05,-1e-05,-1e-05,-2e-05,1,30.0
4514,-1e-05,-1e-05,-3e-05,6e-05,2e-05,-1e-05,-1e-05,-2e-05,1,30.0
4515,-1e-05,-1e-05,-3e-05,6e-05,2e-05,-1e-05,-1e-05,-2e-05,1,30.0
4516,-1e-05,-1e-05,-3e-05,6e-05,2e-05,-1e-05,-1e-05,-2e-05,1,30.0
4517,-1e-05,-1e-05,-3e-05,6e-05,2e-05,-1e-05,-1e-05,-2e-05,1,30.0
4518,-1e-05,-1e-05,-3e-05,6e-05,2e-05,-1e-05,-1e-05,-2e-05,1,30.0
4519,-1e-05,-1e-05,-3e-05,6e-05,2e-05,-1e-05,-1e-05,-2e-05,1,30.0
4520,-1e-05,-1e-05,-3e-05,6e-05,2e-05,-1e-05,-1e-05,-2e-05,1,30.0
4521,-1e-05,-1e-05,-3e-05,6e-05,2e-05,-1e-05,-1e-05,-2e-05,1,30.0
4522,-1e-05,-1e-05,-3e-05,6e-05,2e-05,-1e-05,-1e-05,-2e-05,1,30.0
4523,-1e-05,-1e-05,-3e-05,6e-05,2e-05,-1e-05,-1e-05,-2e-05,1,30.0
4524,-1e-05,-1e-05,-3e-05,6e-05,2e-05,-1e-05,-1e-05,-2e-05,1,30.0
4525,-3e-05,-1e-05,-2e-05,8e-05,-2e-05,0.0,-2e-05,-2e-05,1,30.0
4526,-3e-05,-1e-05,-2e-05,8e-05,-2e-05,0.0,-2e-05,-2e-05,1,30.0
4527,0.0,0.0,3e-05,0.0,0.0,-2e-05,-1e-05,1e-05,1,30.0
4528,0.0,0.0,3e-05,0.0,0.0,-2e-05,-1e-05,1e-05,1,30.0
4529,0.0,0.0,3e-05,0.0,0.0,-2e-05,-1e-05,1e-05,1,30.0
4530,0.0,0.0,3e-05,0.0,0.0,-2e-05,-1e-05,1e-05,1,30.0
4531,0.0,0.0,3e-05,0.0,0.0,-2e-05,-1e-05,1e-05,1,30.0
4532,0.0,0.0,3e-05,0.0,0.0,-2e-05,-1e-05,1e-05,1,30.0
4533,0.0,0.0,3e-05,0.0,0.0,-2e-05,-1e-05,1e-05,1,30.0
4534,0.0,0.0,3e-05,0.0,0.0,-2e-05,-1e-05,1e-05,1,30.0
4535,0.0,0.0,3e-05,0.0,0.0,-2e-05,-1e-05,1e-05,1,30.0
4536,0.0,0.0,3e-05,0.0,0.0,-2e-05,-1e-05,1e-05,1,30.0
4538,0.0,0.0,3e-05,0.0,0.0,-2e-05,-1e-05,1e-05,1,30.0
4539,0.0,0.0,3e-05,0.0,0.0,-2e-05,-1e-05,1e-05,1,30.0
4540,0.0,0.0,3e-05,0.0,0.0,-2e-05,-1e-05,1e-05,1,30.0
4541,0.0,0.0,3e-05,0.0,0.0,-2e-05,-1e-05,1e-05,1,30.0
4542,0.0,0.0,3e-05,0.0,0.0,-2e-05,-1e-05,1e-05,1,30.0
4543,0.0,0.0,3e-05,0.0,0.0,-2e-05,-1e-05,1e-05,1,30.0
4544,0.0,0.0,3e-05,0.0,0.0,-2e-05,-1e-05,1e-05,1,30.0
4545,0.0,0.0,3e-05,0.0,0.0,-2e-05,-1e-05,1e-05,1,30.0
4546,0.0,0.0,3e-05,0.0,0.0,-2e-05,-1e-05,1e-05,1,30.0
4547,0.0,0.0,0.00037,8e-05,1e-05,-2e-05,2e-05,-1e-05,1,30.0
4548,0.0,0.0,0.00037,8e-05,1e-05,-2e-05,2e-05,-1e-05,1,30.0
4549,-2e-05,-1e-05,0.00015,-1e-05,-3e-05,0.0,4e-05,-2e-05,1,30.0
4550,-2e-05,-1e-05,0.00015,-1e-05,-3e-05,0.0,4e-05,-2e-05,1,30.0
4551,-2e-05,-1e-05,0.00015,-1e-05,-3e-05,0.0,4e-05,-2e-05,1,30.0
4552,-2e-05,-1e-05,0.00015,-1e-05,-3e-05,0.0,4e-05,-2e-05,1,30.0
4553,-2e-05,-1e-05,0.00015,-1e-05,-3e-05,0.0,4e-05,-2e-05,1,30.0
4554,-2e-05,-1e-05,0.00015,-1e-05,-3e-05,0.0,4e-05,-2e-05,1,30.0
4555,-2e-05,-1e-05,0.00015,-1e-05,-3e-05,0.0,4e-05,-2e-05,1,30.0
4556,-2e-05,-1e-05,0.00015,-1e-05,-3e-05,0.0,4e-05,-2e-05,1,30.0
4557,-2e-05,-1e-05,0.00015,-1e-05,-3e-05,0.0,4e-05,-2e-05,1,30.0
4558,-2e-05,-1e-05,0.00015,-1e-05,-3e-05,0.0,4e-05,-2e-05,1,30.0
4559,-2e-05,-1e-05,0.00015,-1e-05,-3e-05,0.0,4e-05,-2e-05,1,30.0
4560,-2e-05,-1e-05,0.00015,-1e-05,-3e-05,0.0,4e-05,-2e-05,1,30.0
4561,0.0,1e-05,3e-05,-0.00012,-2e-05,1e-05,-1e-05,-1e-05,1,30.0
4562,0.0,1e-05,3e-05,-0.00012,-2e-05,1e-05,-1e-05,-1e-05,1,30.0
4563,0.0,1e-05,3e-05,-0.00012,-2e-05,1e-05,-1e-05,-1e-05,1,30.0
4564,0.0,1e-05,3e-05,-0.00012,-2e-05,1e-05,-1e-05,-1e-05,1,30.0
4565,0.0,1e-05,3e-05,-0.00012,-2e-05,1e-05,-1e-05,-1e-05,1,30.0
4566,0.0,1e-05,3e-05,-0.00012,-2e-05,1e-05,-1e-05,-1e-05,1,30.0
4567,0.0,1e-05,3e-05,-0.00012,-2e-05,1e-05,-1e-05,-1e-05,1,30.0
4568,0.0,1e-05,3e-05,-0.00012,-2e-05,1e-05,-1e-05,-1e-05,1,30.0
4569,0.0,1e-05,3e-05,-0.00012,-2e-05,1e-05,-1e-05,-1e-05,1,30.0
4571,0.0,1e-05,3e-05,-0.00012,-2e-05,1e-05,-1e-05,-1e-05,1,30.0
4572,0.0,1e-05,3e-05,-0.00012,-2e-05,1e-05,-1e-05,-1e-05,1,30.0
4573,0.0,1e-05,3e-05,-0.00012,-2e-05,1e-05,-1e-05,-1e-05,1,30.0
4574,0.0,1e-05,3e-05,-0.00012,-2e-05,1e-05,-1e-05,-1e-05,1,30.0
4575,0.0,1e-05,3e-05,-0.00012,-2e-05,1e-05,-1e-05,-1e-05,1,30.0
4576,0.0,2e-05,-3e-05,-1e-05,-1e-05,-2e-05,-4e-05,-2e-05,1,30.0
4577,0.0,2e-05,-3e-05,-1e-05,-1e-05,-2e-05,-4e-05,-2e-05,1,30.0
4578,0.0,2e-05,-3e-05,-1e-05,-1e-05,-2e-05,-4e-05,-2e-05,1,30.0
4579,0.0,2e-05,-3e-05,-1e-05,-1e-05,-2e-05,-4e-05,-2e-05,1,30.0
4580,0.0,2e-05,-3e-05,-1e-05,-1e-05,-2e-05,-4e-05,-2e-05,1,30.0
4581,0.0,2e-05,-3e-05,-1e-05,-1e-05,-2e-05,-4e-05,-2e-05,1,30.0
4582,0.0,2e-05,-3e-05,-1e-05,-1e-05,-2e-05,-4e-05,-2e-05,1,30.0
4583,0.0,2e-05,-3e-05,-1e-05,-1e-05,-2e-05,-4e-05,-2e-05,1,30.0
4584,0.0,2e-05,-3e-05,-1e-05,-1e-05,-2e-05,-4e-05,-2e-05,1,30.0
4585,-1e-05,-2e-05,-0.00012,0.0,-3e-05,-3e-05,-1e-05,-2e-05,1,30.0
4586,-1e-05,-2e-05,-0.00012,0.0,-3e-05,-3e-05,-1e-05,-2e-05,1,30.0
4588,0.0,-1e-05,-0.0001,-2e-05,-1e-05,0.0,-2e-05,-1e-05,1,30.0
4589,0.0,-1e-05,-0.0001,-2e-05,-1e-05,0.0,-2e-05,-1e-05,1,30.0
4590,0.0,-1e-05,-0.0001,-2e-05,-1e-05,0.0,-2e-05,-1e-05,1,30.0
4591,0.0,-1e-05,-0.0001,-2e-05,-1e-05,0.0,-2e-05,-1e-05,1,30.0
4592,0.0,-1e-05,-0.0001,-2e-05,-1e-05,0.0,-2e-05,-1e-05,1,30.0
4593,0.0,-1e-05,-0.0001,-2e-05,-1e-05,0.0,-2e-05,-1e-05,1,30.0
4594,0.0,-1e-05,-0.0001,-2e-05,-1e-05,0.0,-2e-05,-1e-05,1,30.0
