time,channel1,channel2,channel3,channel4,channel5,channel6,channel7,channel8,class,label
1616,1e-05,1e-05,-4e-05,-3e-05,-7e-05,2e-05,0.0,0.0,1,32.0
1617,1e-05,1e-05,-4e-05,-3e-05,-7e-05,2e-05,0.0,0.0,1,32.0
1618,1e-05,1e-05,-4e-05,-3e-05,-7e-05,2e-05,0.0,0.0,1,32.0
1619,1e-05,1e-05,-4e-05,-3e-05,-7e-05,2e-05,0.0,0.0,1,32.0
1620,1e-05,1e-05,-4e-05,-3e-05,-7e-05,2e-05,0.0,0.0,1,32.0
1621,1e-05,1e-05,-4e-05,-3e-05,-7e-05,2e-05,0.0,0.0,1,32.0
1622,1e-05,1e-05,-4e-05,-3e-05,-7e-05,2e-05,0.0,0.0,1,32.0
1623,-2e-05,0.0,2e-05,7e-05,8e-05,-1e-05,-2e-05,-2e-05,1,32.0
1624,-2e-05,0.0,2e-05,7e-05,8e-05,-1e-05,-2e-05,-2e-05,1,32.0
1625,-2e-05,0.0,2e-05,7e-05,8e-05,-1e-05,-2e-05,-2e-05,1,32.0
1626,-2e-05,0.0,2e-05,7e-05,8e-05,-1e-05,-2e-05,-2e-05,1,32.0
1627,-2e-05,0.0,2e-05,7e-05,8e-05,-1e-05,-2e-05,-2e-05,1,32.0
1628,-2e-05,0.0,2e-05,7e-05,8e-05,-1e-05,-2e-05,-2e-05,1,32.0
1629,-2e-05,0.0,2e-05,7e-05,8e-05,-1e-05,-2e-05,-2e-05,1,32.0
1630,-2e-05,0.0,2e-05,7e-05,8e-05,-1e-05,-2e-05,-2e-05,1,32.0
1631,-2e-05,0.0,2e-05,7e-05,8e-05,-1e-05,-2e-05,-2e-05,1,32.0
1632,-2e-05,0.0,2e-05,7e-05,8e-05,-1e-05,-2e-05,-2e-05,1,32.0
1633,-2e-05,0.0,2e-05,7e-05,8e-05,-1e-05,-2e-05,-2e-05,1,32.0
1634,-2e-05,0.0,2e-05,7e-05,8e-05,-1e-05,-2e-05,-2e-05,1,32.0
1635,-2e-05,0.0,2e-05,7e-05,8e-05,-1e-05,-2e-05,-2e-05,1,32.0
1636,-2e-05,0.0,2e-05,7e-05,8e-05,-1e-05,-2e-05,-2e-05,1,32.0
1638,-2e-05,0.0,2e-05,7e-05,8e-05,-1e-05,-2e-05,-2e-05,1,32.0
1639,-2e-05,0.0,2e-05,7e-05,8e-05,-1e-05,-2e-05,-2e-05,1,32.0
1640,-2e-05,0.0,2e-05,7e-05,8e-05,-1e-05,-2e-05,-2e-05,1,32.0
1641,-2e-05,0.0,2e-05,7e-05,8e-05,-1e-05,-2e-05,-2e-05,1,32.0
1642,-2e-05,0.0,2e-05,7e-05,8e-05,-1e-05,-2e-05,-2e-05,1,32.0
1643,-2e-05,0.0,2e-05,7e-05,8e-05,-1e-05,-2e-05,-2e-05,1,32.0
1644,-2e-05,0.0,2e-05,7e-05,8e-05,-1e-05,-2e-05,-2e-05,1,32.0
1645,-2e-05,0.0,2e-05,7e-05,8e-05,-1e-05,-2e-05,-2e-05,1,32.0
1646,-2e-05,0.0,2e-05,7e-05,8e-05,-1e-05,-2e-05,-2e-05,1,32.0
1647,-2e-05,0.0,2e-05,7e-05,8e-05,-1e-05,-2e-05,-2e-05,1,32.0
1648,-2e-05,0.0,2e-05,7e-05,8e-05,-1e-05,-2e-05,-2e-05,1,32.0
1649,-2e-05,0.0,2e-05,7e-05,8e-05,-1e-05,-2e-05,-2e-05,1,32.0
1650,-2e-05,0.0,2e-05,7e-05,8e-05,-1e-05,-2e-05,-2e-05,1,32.0
1651,-1e-05,-2e-05,-3e-05,-5e-05,-5e-05,-1e-05,0.0,-1e-05,1,32.0
1652,0.0,0.0,0.0,-4e-05,-6e-05,-0.00017,-3e-05,-1e-05,1,32.0
1653,0.0,0.0,0.0,-4e-05,-6e-05,-0.00017,-3e-05,-1e-05,1,32.0
1654,0.0,0.0,0.0,-4e-05,-6e-05,-0.00017,-3e-05,-1e-05,1,32.0
1655,0.0,0.0,0.0,-4e-05,-6e-05,-0.00017,-3e-05,-1e-05,1,32.0
1656,0.0,0.0,0.0,-4e-05,-6e-05,-0.00017,-3e-05,-1e-05,1,32.0
1657,-2e-05,-2e-05,-1e-05,3e-05,-3e-05,3e-05,-2e-05,-2e-05,1,32.0
1658,-2e-05,-3e-05,-7e-05,-6e-05,0.0,0.0,-1e-05,0.0,1,32.0
1659,-2e-05,-3e-05,-7e-05,-6e-05,0.0,0.0,-1e-05,0.0,1,32.0
1660,-2e-05,-3e-05,-7e-05,-6e-05,0.0,0.0,-1e-05,0.0,1,32.0
1661,-2e-05,-3e-05,-7e-05,-6e-05,0.0,0.0,-1e-05,0.0,1,32.0
1662,-2e-05,-3e-05,-7e-05,-6e-05,0.0,0.0,-1e-05,0.0,1,32.0
1663,-2e-05,-3e-05,-7e-05,-6e-05,0.0,0.0,-1e-05,0.0,1,32.0
1664,-2e-05,-3e-05,-7e-05,-6e-05,0.0,0.0,-1e-05,0.0,1,32.0
1665,-2e-05,-3e-05,-7e-05,-6e-05,0.0,0.0,-1e-05,0.0,1,32.0
1666,-2e-05,-3e-05,-7e-05,-6e-05,0.0,0.0,-1e-05,0.0,1,32.0
1667,-2e-05,-3e-05,-7e-05,-6e-05,0.0,0.0,-1e-05,0.0,1,32.0
1668,-2e-05,-3e-05,-7e-05,-6e-05,0.0,0.0,-1e-05,0.0,1,32.0
1669,-2e-05,-3e-05,-7e-05,-6e-05,0.0,0.0,-1e-05,0.0,1,32.0
1670,-2e-05,-3e-05,-7e-05,-6e-05,0.0,0.0,-1e-05,0.0,1,32.0
1671,-2e-05,-3e-05,-7e-05,-6e-05,0.0,0.0,-1e-05,0.0,1,32.0
1672,-1e-05,-3e-05,-7e-05,-7e-05,1e-05,-2e-05,0.0,-1e-05,1,32.0
1673,-1e-05,-3e-05,-7e-05,-7e-05,1e-05,-2e-05,0.0,-1e-05,1,32.0
1674,-1e-05,-3e-05,-7e-05,-7e-05,1e-05,-2e-05,0.0,-1e-05,1,32.0
1675,-1e-05,-3e-05,-7e-05,-7e-05,1e-05,-2e-05,0.0,-1e-05,1,32.0
1676,-1e-05,-3e-05,-7e-05,-7e-05,1e-05,-2e-05,0.0,-1e-05,1,32.0
1677,-1e-05,-3e-05,-7e-05,-7e-05,1e-05,-2e-05,0.0,-1e-05,1,32.0
1678,-1e-05,-3e-05,-7e-05,-7e-05,1e-05,-2e-05,0.0,-1e-05,1,32.0
1679,-1e-05,-3e-05,-7e-05,-7e-05,1e-05,-2e-05,0.0,-1e-05,1,32.0
1680,-1e-05,-3e-05,-7e-05,-7e-05,1e-05,-2e-05,0.0,-1e-05,1,32.0
1681,-1e-05,-3e-05,-7e-05,-7e-05,1e-05,-2e-05,0.0,-1e-05,1,32.0
1682,-1e-05,-3e-05,-7e-05,-7e-05,1e-05,-2e-05,0.0,-1e-05,1,32.0
1683,-1e-05,-3e-05,-7e-05,-7e-05,1e-05,-2e-05,0.0,-1e-05,1,32.0
1684,-1e-05,-3e-05,-7e-05,-7e-05,1e-05,-2e-05,0.0,-1e-05,1,32.0
1685,-1e-05,-3e-05,-7e-05,-7e-05,1e-05,-2e-05,0.0,-1e-05,1,32.0
1686,-1e-05,-3e-05,-7e-05,-7e-05,1e-05,-2e-05,0.0,-1e-05,1,32.0
1688,-1e-05,1e-05,3e-05,1e-05,-2e-05,-1e-05,-1e-05,-2e-05,1,32.0
1689,-1e-05,1e-05,3e-05,1e-05,-2e-05,-1e-05,-1e-05,-2e-05,1,32.0
1690,1e-05,-2e-05,0.0,2e-05,1e-05,0.00017,2e-05,1e-05,1,32.0
1691,1e-05,-2e-05,0.0,2e-05,1e-05,0.00017,2e-05,1e-05,1,32.0
1692,1e-05,-2e-05,0.0,2e-05,1e-05,0.00017,2e-05,1e-05,1,32.0
1693,1e-05,-2e-05,0.0,2e-05,1e-05,0.00017,2e-05,1e-05,1,32.0
1694,1e-05,-2e-05,0.0,2e-05,1e-05,0.00017,2e-05,1e-05,1,32.0
1695,1e-05,-2e-05,0.0,2e-05,1e-05,0.00017,2e-05,1e-05,1,32.0
1696,1e-05,-2e-05,0.0,2e-05,1e-05,0.00017,2e-05,1e-05,1,32.0
1697,1e-05,-2e-05,0.0,2e-05,1e-05,0.00017,2e-05,1e-05,1,32.0
1698,1e-05,-2e-05,0.0,2e-05,1e-05,0.00017,2e-05,1e-05,1,32.0
1699,1e-05,-2e-05,0.0,2e-05,1e-05,0.00017,2e-05,1e-05,1,32.0
1700,1e-05,-2e-05,0.0,2e-05,1e-05,0.00017,2e-05,1e-05,1,32.0
1701,1e-05,-2e-05,0.0,2e-05,1e-05,0.00017,2e-05,1e-05,1,32.0
1702,1e-05,-2e-05,0.0,2e-05,1e-05,0.00017,2e-05,1e-05,1,32.0
1703,1e-05,-2e-05,0.0,2e-05,1e-05,0.00017,2e-05,1e-05,1,32.0
1704,1e-05,-2e-05,0.0,2e-05,1e-05,0.00017,2e-05,1e-05,1,32.0
1705,1e-05,-2e-05,0.0,2e-05,1e-05,0.00017,2e-05,1e-05,1,32.0
1706,1e-05,-2e-05,0.0,2e-05,1e-05,0.00017,2e-05,1e-05,1,32.0
1707,1e-05,-2e-05,0.0,2e-05,1e-05,0.00017,2e-05,1e-05,1,32.0
1708,1e-05,-2e-05,0.0,2e-05,1e-05,0.00017,2e-05,1e-05,1,32.0
1709,1e-05,-2e-05,0.0,2e-05,1e-05,0.00017,2e-05,1e-05,1,32.0
1710,1e-05,-2e-05,0.0,2e-05,1e-05,0.00017,2e-05,1e-05,1,32.0
1711,0.0,-3e-05,-1e-05,0.0,-1e-05,-3e-05,-1e-05,-1e-05,1,32.0
1712,0.0,-3e-05,-1e-05,0.0,-1e-05,-3e-05,-1e-05,-1e-05,1,32.0
1713,0.0,-3e-05,-1e-05,0.0,-1e-05,-3e-05,-1e-05,-1e-05,1,32.0
1714,0.0,-3e-05,-1e-05,0.0,-1e-05,-3e-05,-1e-05,-1e-05,1,32.0
1715,0.0,-3e-05,-1e-05,0.0,-1e-05,-3e-05,-1e-05,-1e-05,1,32.0
1716,0.0,-3e-05,-1e-05,0.0,-1e-05,-3e-05,-1e-05,-1e-05,1,32.0
1717,0.0,-3e-05,-1e-05,0.0,-1e-05,-3e-05,-1e-05,-1e-05,1,32.0
1718,-1e-05,0.0,0.0,7e-05,3e-05,-1e-05,-2e-05,0.0,1,32.0
1719,-2e-05,1e-05,0.0,-1e-05,-2e-05,0.0,1e-05,0.0,1,32.0
1720,-2e-05,1e-05,0.0,-1e-05,-2e-05,0.0,1e-05,0.0,1,32.0
1721,-2e-05,1e-05,0.0,-1e-05,-2e-05,0.0,1e-05,0.0,1,32.0
1722,-2e-05,1e-05,0.0,-1e-05,-2e-05,0.0,1e-05,0.0,1,32.0
1723,-2e-05,1e-05,0.0,-1e-05,-2e-05,0.0,1e-05,0.0,1,32.0
1724,0.0,-1e-05,-2e-05,-5e-05,-5e-05,-3e-05,-1e-05,0.0,1,32.0
1725,0.0,-1e-05,-2e-05,-5e-05,-5e-05,-3e-05,-1e-05,0.0,1,32.0
1726,0.0,-1e-05,-2e-05,-5e-05,-5e-05,-3e-05,-1e-05,0.0,1,32.0
1727,0.0,-1e-05,-2e-05,-5e-05,-5e-05,-3e-05,-1e-05,0.0,1,32.0
1728,0.0,-1e-05,-2e-05,-5e-05,-5e-05,-3e-05,-1e-05,0.0,1,32.0
1729,0.0,-1e-05,-2e-05,-5e-05,-5e-05,-3e-05,-1e-05,0.0,1,32.0
1730,0.0,-1e-05,-2e-05,-5e-05,-5e-05,-3e-05,-1e-05,0.0,1,32.0
1731,0.0,-1e-05,-2e-05,-5e-05,-5e-05,-3e-05,-1e-05,0.0,1,32.0
1732,0.0,-1e-05,-2e-05,-5e-05,-5e-05,-3e-05,-1e-05,0.0,1,32.0
1733,0.0,-1e-05,-2e-05,-5e-05,-5e-05,-3e-05,-1e-05,0.0,1,32.0
1734,0.0,-1e-05,-2e-05,-5e-05,-5e-05,-3e-05,-1e-05,0.0,1,32.0
1735,0.0,-1e-05,-2e-05,-5e-05,-5e-05,-3e-05,-1e-05,0.0,1,32.0
1736,0.0,-1e-05,-2e-05,-5e-05,-5e-05,-3e-05,-1e-05,0.0,1,32.0
1738,0.0,-1e-05,-2e-05,-5e-05,-5e-05,-3e-05,-1e-05,0.0,1,32.0
1739,0.0,-1e-05,-2e-05,-5e-05,-5e-05,-3e-05,-1e-05,0.0,1,32.0
1740,0.0,-1e-05,-2e-05,-5e-05,-5e-05,-3e-05,-1e-05,0.0,1,32.0
1741,0.0,-2e-05,1e-05,3e-05,-5e-05,-4e-05,-2e-05,-1e-05,1,32.0
1742,0.0,-2e-05,1e-05,3e-05,-5e-05,-4e-05,-2e-05,-1e-05,1,32.0
1743,-3e-05,-2e-05,-3e-05,1e-05,0.0,-3e-05,-3e-05,-2e-05,1,32.0
1744,-3e-05,-2e-05,-3e-05,1e-05,0.0,-3e-05,-3e-05,-2e-05,1,32.0
1745,-3e-05,-2e-05,-3e-05,1e-05,0.0,-3e-05,-3e-05,-2e-05,1,32.0
1746,-3e-05,-2e-05,-3e-05,1e-05,0.0,-3e-05,-3e-05,-2e-05,1,32.0
1747,-3e-05,-2e-05,-3e-05,1e-05,0.0,-3e-05,-3e-05,-2e-05,1,32.0
1748,-3e-05,-2e-05,-3e-05,1e-05,0.0,-3e-05,-3e-05,-2e-05,1,32.0
1749,-3e-05,-2e-05,-3e-05,1e-05,0.0,-3e-05,-3e-05,-2e-05,1,32.0
1750,-3e-05,-2e-05,-3e-05,1e-05,0.0,-3e-05,-3e-05,-2e-05,1,32.0
1751,-3e-05,-2e-05,-3e-05,1e-05,0.0,-3e-05,-3e-05,-2e-05,1,32.0
1752,-3e-05,-2e-05,-3e-05,1e-05,0.0,-3e-05,-3e-05,-2e-05,1,32.0
1753,-3e-05,-2e-05,-3e-05,1e-05,0.0,-3e-05,-3e-05,-2e-05,1,32.0
1754,-3e-05,-2e-05,-3e-05,1e-05,0.0,-3e-05,-3e-05,-2e-05,1,32.0
1755,-3e-05,-2e-05,-3e-05,1e-05,0.0,-3e-05,-3e-05,-2e-05,1,32.0
1756,-3e-05,-2e-05,-3e-05,1e-05,0.0,-3e-05,-3e-05,-2e-05,1,32.0
1757,-3e-05,-2e-05,-3e-05,1e-05,0.0,-3e-05,-3e-05,-2e-05,1,32.0
1758,-3e-05,-2e-05,-3e-05,1e-05,0.0,-3e-05,-3e-05,-2e-05,1,32.0
1759,-3e-05,-2e-05,-3e-05,1e-05,0.0,-3e-05,-3e-05,-2e-05,1,32.0
1760,-3e-05,-2e-05,-3e-05,1e-05,0.0,-3e-05,-3e-05,-2e-05,1,32.0
1761,-3e-05,-2e-05,-3e-05,1e-05,0.0,-3e-05,-3e-05,-2e-05,1,32.0
1762,-3e-05,-2e-05,-3e-05,1e-05,0.0,-3e-05,-3e-05,-2e-05,1,32.0
1763,-3e-05,-2e-05,-3e-05,1e-05,0.0,-3e-05,-3e-05,-2e-05,1,32.0
1764,-3e-05,-2e-05,-3e-05,1e-05,0.0,-3e-05,-3e-05,-2e-05,1,32.0
1765,-3e-05,-2e-05,-3e-05,1e-05,0.0,-3e-05,-3e-05,-2e-05,1,32.0
1766,-3e-05,-2e-05,-3e-05,1e-05,0.0,-3e-05,-3e-05,-2e-05,1,32.0
1767,-3e-05,-2e-05,-3e-05,1e-05,0.0,-3e-05,-3e-05,-2e-05,1,32.0
1768,-3e-05,-2e-05,-3e-05,1e-05,0.0,-3e-05,-3e-05,-2e-05,1,32.0
1769,-3e-05,-2e-05,-3e-05,1e-05,0.0,-3e-05,-3e-05,-2e-05,1,32.0
1770,-3e-05,-2e-05,-3e-05,1e-05,0.0,-3e-05,-3e-05,-2e-05,1,32.0
1771,-1e-05,1e-05,3e-05,2e-05,4e-05,0.00016,3e-05,1e-05,1,32.0
1772,-1e-05,-2e-05,-4e-05,2e-05,1e-05,1e-05,0.0,-2e-05,1,32.0
1773,-1e-05,-2e-05,-4e-05,2e-05,1e-05,1e-05,0.0,-2e-05,1,32.0
1774,-1e-05,-2e-05,-4e-05,2e-05,1e-05,1e-05,0.0,-2e-05,1,32.0
1775,-1e-05,-2e-05,-4e-05,2e-05,1e-05,1e-05,0.0,-2e-05,1,32.0
1776,-1e-05,-2e-05,-4e-05,2e-05,1e-05,1e-05,0.0,-2e-05,1,32.0
1777,-2e-05,-1e-05,-2e-05,0.0,-2e-05,-3e-05,-1e-05,-1e-05,1,32.0
1778,-2e-05,-1e-05,-2e-05,0.0,-2e-05,-3e-05,-1e-05,-1e-05,1,32.0
1779,-2e-05,-1e-05,-2e-05,0.0,-2e-05,-3e-05,-1e-05,-1e-05,1,32.0
1780,-2e-05,-1e-05,-2e-05,0.0,-2e-05,-3e-05,-1e-05,-1e-05,1,32.0
1781,-2e-05,-1e-05,-2e-05,0.0,-2e-05,-3e-05,-1e-05,-1e-05,1,32.0
1782,-2e-05,-1e-05,-2e-05,0.0,-2e-05,-3e-05,-1e-05,-1e-05,1,32.0
1783,-2e-05,-1e-05,-2e-05,0.0,-2e-05,-3e-05,-1e-05,-1e-05,1,32.0
1784,-2e-05,-1e-05,-2e-05,0.0,-2e-05,-3e-05,-1e-05,-1e-05,1,32.0
1785,-2e-05,-1e-05,-2e-05,0.0,-2e-05,-3e-05,-1e-05,-1e-05,1,32.0
1786,-2e-05,-1e-05,-2e-05,0.0,-2e-05,-3e-05,-1e-05,-1e-05,1,32.0
1788,-2e-05,-1e-05,-2e-05,0.0,-2e-05,-3e-05,-1e-05,-1e-05,1,32.0
1789,-2e-05,-1e-05,-2e-05,0.0,-2e-05,-3e-05,-1e-05,-1e-05,1,32.0
1790,-2e-05,-1e-05,-2e-05,0.0,-2e-05,-3e-05,-1e-05,-1e-05,1,32.0
1791,-2e-05,-1e-05,-2e-05,0.0,-2e-05,-3e-05,-1e-05,-1e-05,1,32.0
1792,-2e-05,-1e-05,-2e-05,0.0,-2e-05,-3e-05,-1e-05,-1e-05,1,32.0
1793,-3e-05,-1e-05,-2e-05,0.0,-6e-05,-7e-05,-2e-05,0.0,1,32.0
1794,-3e-05,-1e-05,-2e-05,0.0,-6e-05,-7e-05,-2e-05,0.0,1,32.0
1795,-3e-05,-1e-05,-2e-05,0.0,-6e-05,-7e-05,-2e-05,0.0,1,32.0
1796,-3e-05,-1e-05,-2e-05,0.0,-6e-05,-7e-05,-2e-05,0.0,1,32.0
1797,-3e-05,-1e-05,-2e-05,0.0,-6e-05,-7e-05,-2e-05,0.0,1,32.0
1798,-3e-05,-1e-05,-2e-05,0.0,-6e-05,-7e-05,-2e-05,0.0,1,32.0
1799,-3e-05,-1e-05,-2e-05,0.0,-6e-05,-7e-05,-2e-05,0.0,1,32.0
1800,-3e-05,-1e-05,-2e-05,0.0,-6e-05,-7e-05,-2e-05,0.0,1,32.0
1801,-1e-05,0.0,-1e-05,-1e-05,0.0,4e-05,-1e-05,-1e-05,1,32.0
1802,-1e-05,0.0,-1e-05,-1e-05,0.0,4e-05,-1e-05,-1e-05,1,32.0
1803,-3e-05,-1e-05,0.0,-0.00011,-0.00013,-0.00017,-5e-05,-3e-05,1,32.0
1804,-3e-05,-1e-05,0.0,-0.00011,-0.00013,-0.00017,-5e-05,-3e-05,1,32.0
1805,-3e-05,-1e-05,0.0,-0.00011,-0.00013,-0.00017,-5e-05,-3e-05,1,32.0
1806,-3e-05,-1e-05,0.0,-0.00011,-0.00013,-0.00017,-5e-05,-3e-05,1,32.0
1807,-3e-05,-1e-05,0.0,-0.00011,-0.00013,-0.00017,-5e-05,-3e-05,1,32.0
1808,-3e-05,-1e-05,0.0,-0.00011,-0.00013,-0.00017,-5e-05,-3e-05,1,32.0
1809,-3e-05,-1e-05,0.0,-0.00011,-0.00013,-0.00017,-5e-05,-3e-05,1,32.0
1811,-3e-05,-1e-05,0.0,-0.00011,-0.00013,-0.00017,-5e-05,-3e-05,1,32.0
1812,-3e-05,-1e-05,0.0,-0.00011,-0.00013,-0.00017,-5e-05,-3e-05,1,32.0
1813,-3e-05,-1e-05,0.0,-0.00011,-0.00013,-0.00017,-5e-05,-3e-05,1,32.0
1814,-3e-05,-1e-05,0.0,-0.00011,-0.00013,-0.00017,-5e-05,-3e-05,1,32.0
1815,-3e-05,-1e-05,0.0,-0.00011,-0.00013,-0.00017,-5e-05,-3e-05,1,32.0
1816,-3e-05,-1e-05,0.0,-0.00011,-0.00013,-0.00017,-5e-05,-3e-05,1,32.0
1817,-3e-05,-1e-05,0.0,-0.00011,-0.00013,-0.00017,-5e-05,-3e-05,1,32.0
1818,-3e-05,-1e-05,0.0,-0.00011,-0.00013,-0.00017,-5e-05,-3e-05,1,32.0
1819,-3e-05,-1e-05,0.0,-0.00011,-0.00013,-0.00017,-5e-05,-3e-05,1,32.0
1820,-3e-05,-1e-05,0.0,-0.00011,-0.00013,-0.00017,-5e-05,-3e-05,1,32.0
1821,-3e-05,-1e-05,0.0,-0.00011,-0.00013,-0.00017,-5e-05,-3e-05,1,32.0
1822,-3e-05,-1e-05,0.0,-0.00011,-0.00013,-0.00017,-5e-05,-3e-05,1,32.0
1823,-1e-05,-1e-05,0.0,-2e-05,-1e-05,-6e-05,-2e-05,-1e-05,1,32.0
1824,-1e-05,-1e-05,0.0,-2e-05,-1e-05,-6e-05,-2e-05,-1e-05,1,32.0
1825,-2e-05,-2e-05,-6e-05,-8e-05,1e-05,2e-05,-1e-05,-1e-05,1,32.0
1826,-2e-05,-2e-05,-6e-05,-8e-05,1e-05,2e-05,-1e-05,-1e-05,1,32.0
1827,-2e-05,-2e-05,-6e-05,-8e-05,1e-05,2e-05,-1e-05,-1e-05,1,32.0
1828,-2e-05,-2e-05,-6e-05,-8e-05,1e-05,2e-05,-1e-05,-1e-05,1,32.0
1829,-2e-05,-2e-05,-6e-05,-8e-05,1e-05,2e-05,-1e-05,-1e-05,1,32.0
1830,-2e-05,-2e-05,-6e-05,-8e-05,1e-05,2e-05,-1e-05,-1e-05,1,32.0
1831,-2e-05,-2e-05,-6e-05,-8e-05,1e-05,2e-05,-1e-05,-1e-05,1,32.0
1832,-2e-05,-2e-05,-6e-05,-8e-05,1e-05,2e-05,-1e-05,-1e-05,1,32.0
1833,-2e-05,-2e-05,-6e-05,-8e-05,1e-05,2e-05,-1e-05,-1e-05,1,32.0
1834,-2e-05,-2e-05,-6e-05,-8e-05,1e-05,2e-05,-1e-05,-1e-05,1,32.0
1835,-2e-05,-2e-05,-6e-05,-8e-05,1e-05,2e-05,-1e-05,-1e-05,1,32.0
1836,-2e-05,-2e-05,-6e-05,-8e-05,1e-05,2e-05,-1e-05,-1e-05,1,32.0
1838,0.0,1e-05,0.0,-3e-05,1e-05,-3e-05,-2e-05,-1e-05,1,32.0
1839,0.0,1e-05,0.0,-3e-05,1e-05,-3e-05,-2e-05,-1e-05,1,32.0
1840,0.0,1e-05,0.0,-3e-05,1e-05,-3e-05,-2e-05,-1e-05,1,32.0
1841,0.0,1e-05,0.0,-3e-05,1e-05,-3e-05,-2e-05,-1e-05,1,32.0
1842,0.0,1e-05,0.0,-3e-05,1e-05,-3e-05,-2e-05,-1e-05,1,32.0
1843,0.0,1e-05,0.0,-3e-05,1e-05,-3e-05,-2e-05,-1e-05,1,32.0
1844,0.0,1e-05,0.0,-3e-05,1e-05,-3e-05,-2e-05,-1e-05,1,32.0
1845,0.0,1e-05,0.0,-3e-05,1e-05,-3e-05,-2e-05,-1e-05,1,32.0
1846,0.0,-1e-05,4e-05,6e-05,-1e-05,-3e-05,-1e-05,-1e-05,1,32.0
1847,0.0,-1e-05,4e-05,6e-05,-1e-05,-3e-05,-1e-05,-1e-05,1,32.0
1848,0.0,-1e-05,4e-05,6e-05,-1e-05,-3e-05,-1e-05,-1e-05,1,32.0
1849,0.0,-1e-05,4e-05,6e-05,-1e-05,-3e-05,-1e-05,-1e-05,1,32.0
1850,0.0,-1e-05,4e-05,6e-05,-1e-05,-3e-05,-1e-05,-1e-05,1,32.0
1851,0.0,-1e-05,4e-05,6e-05,-1e-05,-3e-05,-1e-05,-1e-05,1,32.0
1852,0.0,-1e-05,4e-05,6e-05,-1e-05,-3e-05,-1e-05,-1e-05,1,32.0
1853,0.0,-1e-05,4e-05,6e-05,-1e-05,-3e-05,-1e-05,-1e-05,1,32.0
1854,0.0,-1e-05,4e-05,6e-05,-1e-05,-3e-05,-1e-05,-1e-05,1,32.0
1855,0.0,-1e-05,4e-05,6e-05,-1e-05,-3e-05,-1e-05,-1e-05,1,32.0
1856,0.0,-1e-05,4e-05,6e-05,-1e-05,-3e-05,-1e-05,-1e-05,1,32.0
1857,0.0,-1e-05,4e-05,6e-05,-1e-05,-3e-05,-1e-05,-1e-05,1,32.0
1858,0.0,-1e-05,4e-05,6e-05,-1e-05,-3e-05,-1e-05,-1e-05,1,32.0
1859,0.0,-1e-05,4e-05,6e-05,-1e-05,-3e-05,-1e-05,-1e-05,1,32.0
1860,0.0,-1e-05,4e-05,6e-05,-1e-05,-3e-05,-1e-05,-1e-05,1,32.0
1861,-3e-05,-1e-05,-1e-05,3e-05,-3e-05,-4e-05,-2e-05,-2e-05,1,32.0
1862,-1e-05,-4e-05,-4e-05,-3e-05,-7e-05,-4e-05,-2e-05,-2e-05,1,32.0
1863,-1e-05,-4e-05,-4e-05,-3e-05,-7e-05,-4e-05,-2e-05,-2e-05,1,32.0
1864,-1e-05,-4e-05,-4e-05,-3e-05,-7e-05,-4e-05,-2e-05,-2e-05,1,32.0
1865,-1e-05,-4e-05,-4e-05,-3e-05,-7e-05,-4e-05,-2e-05,-2e-05,1,32.0
1866,-1e-05,-4e-05,-4e-05,-3e-05,-7e-05,-4e-05,-2e-05,-2e-05,1,32.0
1867,-1e-05,-4e-05,-4e-05,-3e-05,-7e-05,-4e-05,-2e-05,-2e-05,1,32.0
1868,-1e-05,-4e-05,-4e-05,-3e-05,-7e-05,-4e-05,-2e-05,-2e-05,1,32.0
1869,-1e-05,-4e-05,-4e-05,-3e-05,-7e-05,-4e-05,-2e-05,-2e-05,1,32.0
1870,-1e-05,-4e-05,-4e-05,-3e-05,-7e-05,-4e-05,-2e-05,-2e-05,1,32.0
1871,-1e-05,-4e-05,-4e-05,-3e-05,-7e-05,-4e-05,-2e-05,-2e-05,1,32.0
1872,-1e-05,-4e-05,-4e-05,-3e-05,-7e-05,-4e-05,-2e-05,-2e-05,1,32.0
1873,-1e-05,-4e-05,-4e-05,-3e-05,-7e-05,-4e-05,-2e-05,-2e-05,1,32.0
1874,-1e-05,-4e-05,-4e-05,-3e-05,-7e-05,-4e-05,-2e-05,-2e-05,1,32.0
1875,-1e-05,-4e-05,-4e-05,-3e-05,-7e-05,-4e-05,-2e-05,-2e-05,1,32.0
1876,-1e-05,-4e-05,-4e-05,-3e-05,-7e-05,-4e-05,-2e-05,-2e-05,1,32.0
1877,-1e-05,-4e-05,-4e-05,-3e-05,-7e-05,-4e-05,-2e-05,-2e-05,1,32.0
1878,-1e-05,-4e-05,-4e-05,-3e-05,-7e-05,-4e-05,-2e-05,-2e-05,1,32.0
1879,-1e-05,-4e-05,-4e-05,-3e-05,-7e-05,-4e-05,-2e-05,-2e-05,1,32.0
1880,-1e-05,-4e-05,-4e-05,-3e-05,-7e-05,-4e-05,-2e-05,-2e-05,1,32.0
1881,-1e-05,-4e-05,-4e-05,-3e-05,-7e-05,-4e-05,-2e-05,-2e-05,1,32.0
1882,-1e-05,-4e-05,-4e-05,-3e-05,-7e-05,-4e-05,-2e-05,-2e-05,1,32.0
1883,-1e-05,-4e-05,-4e-05,-3e-05,-7e-05,-4e-05,-2e-05,-2e-05,1,32.0
1884,0.0,0.0,-2e-05,-1e-05,3e-05,0.0,-2e-05,-1e-05,1,32.0
1885,-1e-05,1e-05,1e-05,2e-05,5e-05,8e-05,3e-05,2e-05,1,32.0
1886,-1e-05,1e-05,1e-05,2e-05,5e-05,8e-05,3e-05,2e-05,1,32.0
1888,-1e-05,1e-05,1e-05,2e-05,5e-05,8e-05,3e-05,2e-05,1,32.0
1889,-1e-05,1e-05,1e-05,2e-05,5e-05,8e-05,3e-05,2e-05,1,32.0
1890,-1e-05,1e-05,1e-05,2e-05,5e-05,8e-05,3e-05,2e-05,1,32.0
1891,-1e-05,1e-05,1e-05,2e-05,5e-05,8e-05,3e-05,2e-05,1,32.0
1892,-1e-05,1e-05,1e-05,2e-05,5e-05,8e-05,3e-05,2e-05,1,32.0
1893,-1e-05,1e-05,1e-05,2e-05,5e-05,8e-05,3e-05,2e-05,1,32.0
1894,-1e-05,1e-05,1e-05,2e-05,5e-05,8e-05,3e-05,2e-05,1,32.0
1895,-1e-05,1e-05,1e-05,2e-05,5e-05,8e-05,3e-05,2e-05,1,32.0
1896,-1e-05,1e-05,1e-05,2e-05,5e-05,8e-05,3e-05,2e-05,1,32.0
1897,-3e-05,-5e-05,-6e-05,-7e-05,-5e-05,-4e-05,-2e-05,-2e-05,1,32.0
1898,-3e-05,-5e-05,-6e-05,-7e-05,-5e-05,-4e-05,-2e-05,-2e-05,1,32.0
1899,-3e-05,-5e-05,-6e-05,-7e-05,-5e-05,-4e-05,-2e-05,-2e-05,1,32.0
1900,-3e-05,-5e-05,-6e-05,-7e-05,-5e-05,-4e-05,-2e-05,-2e-05,1,32.0
1901,-3e-05,-5e-05,-6e-05,-7e-05,-5e-05,-4e-05,-2e-05,-2e-05,1,32.0
1902,-3e-05,-5e-05,-6e-05,-7e-05,-5e-05,-4e-05,-2e-05,-2e-05,1,32.0
1903,-3e-05,-5e-05,-6e-05,-7e-05,-5e-05,-4e-05,-2e-05,-2e-05,1,32.0
1904,-3e-05,-5e-05,-6e-05,-7e-05,-5e-05,-4e-05,-2e-05,-2e-05,1,32.0
1905,-3e-05,-5e-05,-6e-05,-7e-05,-5e-05,-4e-05,-2e-05,-2e-05,1,32.0
1906,0.0,-2e-05,-7e-05,-0.00016,1e-05,0.0,-1e-05,-1e-05,1,32.0
1907,0.0,-2e-05,-7e-05,-0.00016,1e-05,0.0,-1e-05,-1e-05,1,32.0
1908,0.0,-2e-05,-7e-05,-0.00016,1e-05,0.0,-1e-05,-1e-05,1,32.0
1909,0.0,-2e-05,-7e-05,-0.00016,1e-05,0.0,-1e-05,-1e-05,1,32.0
1910,0.0,-2e-05,-7e-05,-0.00016,1e-05,0.0,-1e-05,-1e-05,1,32.0
1911,0.0,-2e-05,-7e-05,-0.00016,1e-05,0.0,-1e-05,-1e-05,1,32.0
1912,0.0,-2e-05,-7e-05,-0.00016,1e-05,0.0,-1e-05,-1e-05,1,32.0
1913,0.0,-2e-05,-7e-05,-0.00016,1e-05,0.0,-1e-05,-1e-05,1,32.0
1914,0.0,-2e-05,-7e-05,-0.00016,1e-05,0.0,-1e-05,-1e-05,1,32.0
1915,0.0,-2e-05,-7e-05,-0.00016,1e-05,0.0,-1e-05,-1e-05,1,32.0
1916,0.0,-2e-05,-7e-05,-0.00016,1e-05,0.0,-1e-05,-1e-05,1,32.0
1917,0.0,-2e-05,-7e-05,-0.00016,1e-05,0.0,-1e-05,-1e-05,1,32.0
1918,0.0,-2e-05,-7e-05,-0.00016,1e-05,0.0,-1e-05,-1e-05,1,32.0
1919,0.0,-2e-05,-7e-05,-0.00016,1e-05,0.0,-1e-05,-1e-05,1,32.0
1920,0.0,-2e-05,-7e-05,-0.00016,1e-05,0.0,-1e-05,-1e-05,1,32.0
1921,1e-05,0.0,2e-05,3e-05,1e-05,-2e-05,-1e-05,-1e-05,1,32.0
1922,-2e-05,-1e-05,0.0,8e-05,0.0,-3e-05,-2e-05,-2e-05,1,32.0
1923,-2e-05,-1e-05,0.0,8e-05,0.0,-3e-05,-2e-05,-2e-05,1,32.0
1924,-2e-05,-1e-05,0.0,8e-05,0.0,-3e-05,-2e-05,-2e-05,1,32.0
1925,-2e-05,-1e-05,0.0,8e-05,0.0,-3e-05,-2e-05,-2e-05,1,32.0
1926,-2e-05,-1e-05,0.0,8e-05,0.0,-3e-05,-2e-05,-2e-05,1,32.0
1927,-2e-05,-1e-05,0.0,8e-05,0.0,-3e-05,-2e-05,-2e-05,1,32.0
1928,-2e-05,-1e-05,0.0,8e-05,0.0,-3e-05,-2e-05,-2e-05,1,32.0
1929,-2e-05,-1e-05,0.0,8e-05,0.0,-3e-05,-2e-05,-2e-05,1,32.0
1930,-2e-05,-1e-05,0.0,8e-05,0.0,-3e-05,-2e-05,-2e-05,1,32.0
1931,-2e-05,-1e-05,0.0,8e-05,0.0,-3e-05,-2e-05,-2e-05,1,32.0
1932,-2e-05,-1e-05,0.0,8e-05,0.0,-3e-05,-2e-05,-2e-05,1,32.0
1933,-2e-05,-1e-05,0.0,8e-05,0.0,-3e-05,-2e-05,-2e-05,1,32.0
1934,-2e-05,-1e-05,0.0,8e-05,0.0,-3e-05,-2e-05,-2e-05,1,32.0
1935,-2e-05,-1e-05,0.0,8e-05,0.0,-3e-05,-2e-05,-2e-05,1,32.0
1936,-2e-05,-1e-05,0.0,8e-05,0.0,-3e-05,-2e-05,-2e-05,1,32.0
1938,-2e-05,-1e-05,0.0,8e-05,0.0,-3e-05,-2e-05,-2e-05,1,32.0
1939,-2e-05,-1e-05,0.0,8e-05,0.0,-3e-05,-2e-05,-2e-05,1,32.0
1940,-2e-05,-1e-05,0.0,8e-05,0.0,-3e-05,-2e-05,-2e-05,1,32.0
1941,-2e-05,-1e-05,0.0,8e-05,0.0,-3e-05,-2e-05,-2e-05,1,32.0
1942,-2e-05,-1e-05,0.0,8e-05,0.0,-3e-05,-2e-05,-2e-05,1,32.0
1943,-1e-05,-4e-05,-2e-05,-3e-05,-3e-05,-1e-05,-2e-05,-1e-05,1,32.0
1944,-1e-05,-4e-05,-2e-05,-3e-05,-3e-05,-1e-05,-2e-05,-1e-05,1,32.0
1945,1e-05,3e-05,5e-05,9e-05,-2e-05,1e-05,-1e-05,0.0,1,32.0
1946,1e-05,3e-05,5e-05,9e-05,-2e-05,1e-05,-1e-05,0.0,1,32.0
1947,1e-05,3e-05,5e-05,9e-05,-2e-05,1e-05,-1e-05,0.0,1,32.0
1948,1e-05,3e-05,5e-05,9e-05,-2e-05,1e-05,-1e-05,0.0,1,32.0
1949,1e-05,3e-05,5e-05,9e-05,-2e-05,1e-05,-1e-05,0.0,1,32.0
1950,1e-05,3e-05,5e-05,9e-05,-2e-05,1e-05,-1e-05,0.0,1,32.0
1951,1e-05,3e-05,5e-05,9e-05,-2e-05,1e-05,-1e-05,0.0,1,32.0
1952,1e-05,3e-05,5e-05,9e-05,-2e-05,1e-05,-1e-05,0.0,1,32.0
1953,1e-05,3e-05,5e-05,9e-05,-2e-05,1e-05,-1e-05,0.0,1,32.0
1954,1e-05,3e-05,5e-05,9e-05,-2e-05,1e-05,-1e-05,0.0,1,32.0
1955,1e-05,3e-05,5e-05,9e-05,-2e-05,1e-05,-1e-05,0.0,1,32.0
1956,1e-05,3e-05,5e-05,9e-05,-2e-05,1e-05,-1e-05,0.0,1,32.0
1957,1e-05,3e-05,5e-05,9e-05,-2e-05,1e-05,-1e-05,0.0,1,32.0
1958,1e-05,3e-05,5e-05,9e-05,-2e-05,1e-05,-1e-05,0.0,1,32.0
1959,1e-05,3e-05,5e-05,9e-05,-2e-05,1e-05,-1e-05,0.0,1,32.0
1960,1e-05,3e-05,5e-05,9e-05,-2e-05,1e-05,-1e-05,0.0,1,32.0
1961,1e-05,3e-05,5e-05,9e-05,-2e-05,1e-05,-1e-05,0.0,1,32.0
1962,1e-05,3e-05,5e-05,9e-05,-2e-05,1e-05,-1e-05,0.0,1,32.0
1963,1e-05,3e-05,5e-05,9e-05,-2e-05,1e-05,-1e-05,0.0,1,32.0
1964,1e-05,3e-05,5e-05,9e-05,-2e-05,1e-05,-1e-05,0.0,1,32.0
1965,1e-05,3e-05,5e-05,9e-05,-2e-05,1e-05,-1e-05,0.0,1,32.0
1966,1e-05,-1e-05,0.0,-3e-05,-7e-05,-4e-05,-2e-05,-2e-05,1,32.0
1967,-3e-05,-2e-05,-3e-05,-7e-05,0.0,2e-05,2e-05,-1e-05,1,32.0
1968,-3e-05,-2e-05,-3e-05,-7e-05,0.0,2e-05,2e-05,-1e-05,1,32.0
1969,-3e-05,-2e-05,-3e-05,-7e-05,0.0,2e-05,2e-05,-1e-05,1,32.0
1970,-3e-05,-2e-05,-3e-05,-7e-05,0.0,2e-05,2e-05,-1e-05,1,32.0
1971,-3e-05,-2e-05,-3e-05,-7e-05,0.0,2e-05,2e-05,-1e-05,1,32.0
1972,-3e-05,-2e-05,-3e-05,-7e-05,0.0,2e-05,2e-05,-1e-05,1,32.0
1973,-3e-05,-2e-05,-3e-05,-7e-05,0.0,2e-05,2e-05,-1e-05,1,32.0
1974,-3e-05,-2e-05,-3e-05,-7e-05,0.0,2e-05,2e-05,-1e-05,1,32.0
1975,-3e-05,-2e-05,-3e-05,-7e-05,0.0,2e-05,2e-05,-1e-05,1,32.0
1976,-3e-05,-2e-05,-3e-05,-7e-05,0.0,2e-05,2e-05,-1e-05,1,32.0
1977,-3e-05,-2e-05,-3e-05,-7e-05,0.0,2e-05,2e-05,-1e-05,1,32.0
1978,-3e-05,-2e-05,-3e-05,-7e-05,0.0,2e-05,2e-05,-1e-05,1,32.0
1979,-3e-05,-2e-05,-3e-05,-7e-05,0.0,2e-05,2e-05,-1e-05,1,32.0
1980,-3e-05,-4e-05,-5e-05,0.0,1e-05,-8e-05,-2e-05,1e-05,1,32.0
1981,-3e-05,-4e-05,-5e-05,0.0,1e-05,-8e-05,-2e-05,1e-05,1,32.0
1982,-3e-05,-4e-05,-5e-05,0.0,1e-05,-8e-05,-2e-05,1e-05,1,32.0
1983,-3e-05,-4e-05,-5e-05,0.0,1e-05,-8e-05,-2e-05,1e-05,1,32.0
1984,-3e-05,-4e-05,-5e-05,0.0,1e-05,-8e-05,-2e-05,1e-05,1,32.0
1985,-3e-05,-4e-05,-5e-05,0.0,1e-05,-8e-05,-2e-05,1e-05,1,32.0
1986,-3e-05,-4e-05,-5e-05,0.0,1e-05,-8e-05,-2e-05,1e-05,1,32.0
1988,1e-05,1e-05,3e-05,1e-05,3e-05,1e-05,0.0,1e-05,1,32.0
1989,1e-05,1e-05,3e-05,1e-05,3e-05,1e-05,0.0,1e-05,1,32.0
1990,1e-05,1e-05,3e-05,1e-05,3e-05,1e-05,0.0,1e-05,1,32.0
1991,1e-05,1e-05,3e-05,1e-05,3e-05,1e-05,0.0,1e-05,1,32.0
1992,1e-05,1e-05,3e-05,1e-05,3e-05,1e-05,0.0,1e-05,1,32.0
1993,1e-05,1e-05,3e-05,1e-05,3e-05,1e-05,0.0,1e-05,1,32.0
1994,1e-05,1e-05,3e-05,1e-05,3e-05,1e-05,0.0,1e-05,1,32.0
1995,1e-05,1e-05,3e-05,1e-05,3e-05,1e-05,0.0,1e-05,1,32.0
1996,1e-05,1e-05,3e-05,1e-05,3e-05,1e-05,0.0,1e-05,1,32.0
1997,1e-05,1e-05,3e-05,1e-05,3e-05,1e-05,0.0,1e-05,1,32.0
1998,1e-05,1e-05,3e-05,1e-05,3e-05,1e-05,0.0,1e-05,1,32.0
1999,1e-05,1e-05,3e-05,1e-05,3e-05,1e-05,0.0,1e-05,1,32.0
2000,1e-05,1e-05,3e-05,1e-05,3e-05,1e-05,0.0,1e-05,1,32.0
2001,1e-05,1e-05,3e-05,1e-05,3e-05,1e-05,0.0,1e-05,1,32.0
2002,1e-05,1e-05,3e-05,1e-05,3e-05,1e-05,0.0,1e-05,1,32.0
2003,-2e-05,1e-05,1e-05,-1e-05,-1e-05,-3e-05,-1e-05,-1e-05,1,32.0
2004,-2e-05,1e-05,1e-05,-1e-05,-1e-05,-3e-05,-1e-05,-1e-05,1,32.0
2005,-1e-05,-3e-05,-3e-05,-2e-05,0.0,1e-05,-2e-05,0.0,1,32.0
2006,-1e-05,-3e-05,-3e-05,-2e-05,0.0,1e-05,-2e-05,0.0,1,32.0
2007,-1e-05,-3e-05,-3e-05,-2e-05,0.0,1e-05,-2e-05,0.0,1,32.0
2008,-1e-05,-3e-05,-3e-05,-2e-05,0.0,1e-05,-2e-05,0.0,1,32.0
2009,-1e-05,-3e-05,-3e-05,-2e-05,0.0,1e-05,-2e-05,0.0,1,32.0
2010,-1e-05,-3e-05,-3e-05,-2e-05,0.0,1e-05,-2e-05,0.0,1,32.0
2011,-1e-05,-3e-05,-3e-05,-2e-05,0.0,1e-05,-2e-05,0.0,1,32.0
2012,-1e-05,-3e-05,-3e-05,-2e-05,0.0,1e-05,-2e-05,0.0,1,32.0
2013,-1e-05,-3e-05,-3e-05,-2e-05,0.0,1e-05,-2e-05,0.0,1,32.0
2014,-1e-05,-3e-05,-3e-05,-2e-05,0.0,1e-05,-2e-05,0.0,1,32.0
2015,-1e-05,-3e-05,-3e-05,-2e-05,0.0,1e-05,-2e-05,0.0,1,32.0
2016,-1e-05,-3e-05,-3e-05,-2e-05,0.0,1e-05,-2e-05,0.0,1,32.0
2017,0.0,1e-05,0.0,1e-05,2e-05,3e-05,-1e-05,-1e-05,1,32.0
2018,0.0,1e-05,0.0,1e-05,2e-05,3e-05,-1e-05,-1e-05,1,32.0
2019,0.0,1e-05,0.0,1e-05,2e-05,3e-05,-1e-05,-1e-05,1,32.0
2020,0.0,1e-05,0.0,1e-05,2e-05,3e-05,-1e-05,-1e-05,1,32.0
2021,0.0,1e-05,0.0,1e-05,2e-05,3e-05,-1e-05,-1e-05,1,32.0
2022,0.0,1e-05,0.0,1e-05,2e-05,3e-05,-1e-05,-1e-05,1,32.0
2023,0.0,1e-05,0.0,1e-05,2e-05,3e-05,-1e-05,-1e-05,1,32.0
2024,0.0,1e-05,0.0,1e-05,2e-05,3e-05,-1e-05,-1e-05,1,32.0
2025,0.0,1e-05,0.0,1e-05,2e-05,3e-05,-1e-05,-1e-05,1,32.0
2026,1e-05,1e-05,1e-05,-1e-05,0.0,4e-05,1e-05,-1e-05,1,32.0
2027,1e-05,1e-05,1e-05,-1e-05,0.0,4e-05,1e-05,-1e-05,1,32.0
2028,1e-05,1e-05,1e-05,-1e-05,0.0,4e-05,1e-05,-1e-05,1,32.0
2029,1e-05,1e-05,1e-05,-1e-05,0.0,4e-05,1e-05,-1e-05,1,32.0
2030,1e-05,1e-05,1e-05,-1e-05,0.0,4e-05,1e-05,-1e-05,1,32.0
2031,1e-05,1e-05,1e-05,-1e-05,0.0,4e-05,1e-05,-1e-05,1,32.0
2032,1e-05,1e-05,1e-05,-1e-05,0.0,4e-05,1e-05,-1e-05,1,32.0
2033,1e-05,1e-05,1e-05,-1e-05,0.0,4e-05,1e-05,-1e-05,1,32.0
2034,1e-05,1e-05,1e-05,-1e-05,0.0,4e-05,1e-05,-1e-05,1,32.0
2035,1e-05,1e-05,1e-05,-1e-05,0.0,4e-05,1e-05,-1e-05,1,32.0
2036,1e-05,1e-05,1e-05,-1e-05,0.0,4e-05,1e-05,-1e-05,1,32.0
2038,1e-05,1e-05,1e-05,-1e-05,0.0,4e-05,1e-05,-1e-05,1,32.0
2039,1e-05,1e-05,1e-05,-1e-05,0.0,4e-05,1e-05,-1e-05,1,32.0
2040,1e-05,1e-05,1e-05,-1e-05,0.0,4e-05,1e-05,-1e-05,1,32.0
2041,1e-05,1e-05,1e-05,-1e-05,0.0,4e-05,1e-05,-1e-05,1,32.0
2042,1e-05,1e-05,1e-05,-1e-05,0.0,4e-05,1e-05,-1e-05,1,32.0
2043,1e-05,1e-05,1e-05,-1e-05,0.0,4e-05,1e-05,-1e-05,1,32.0
2044,1e-05,1e-05,1e-05,-1e-05,0.0,4e-05,1e-05,-1e-05,1,32.0
2045,1e-05,1e-05,1e-05,-1e-05,0.0,4e-05,1e-05,-1e-05,1,32.0
2046,1e-05,1e-05,1e-05,-1e-05,0.0,4e-05,1e-05,-1e-05,1,32.0
2047,1e-05,1e-05,1e-05,-1e-05,0.0,4e-05,1e-05,-1e-05,1,32.0
2048,2e-05,0.0,2e-05,0.0,-1e-05,1e-05,1e-05,1e-05,1,32.0
2049,2e-05,0.0,2e-05,0.0,-1e-05,1e-05,1e-05,1e-05,1,32.0
2050,-2e-05,-4e-05,-2e-05,-2e-05,1e-05,-3e-05,-2e-05,-2e-05,1,32.0
2051,-2e-05,-4e-05,-2e-05,-2e-05,1e-05,-3e-05,-2e-05,-2e-05,1,32.0
2052,-2e-05,-4e-05,-2e-05,-2e-05,1e-05,-3e-05,-2e-05,-2e-05,1,32.0
2053,-2e-05,-4e-05,-2e-05,-2e-05,1e-05,-3e-05,-2e-05,-2e-05,1,32.0
2054,-2e-05,-4e-05,-2e-05,-2e-05,1e-05,-3e-05,-2e-05,-2e-05,1,32.0
2055,-2e-05,-4e-05,-2e-05,-2e-05,1e-05,-3e-05,-2e-05,-2e-05,1,32.0
2056,-2e-05,-4e-05,-2e-05,-2e-05,1e-05,-3e-05,-2e-05,-2e-05,1,32.0
2057,-2e-05,-4e-05,-2e-05,-2e-05,1e-05,-3e-05,-2e-05,-2e-05,1,32.0
2058,-2e-05,-4e-05,-2e-05,-2e-05,1e-05,-3e-05,-2e-05,-2e-05,1,32.0
2059,-2e-05,-4e-05,-2e-05,-2e-05,1e-05,-3e-05,-2e-05,-2e-05,1,32.0
2060,-2e-05,-4e-05,-2e-05,-2e-05,1e-05,-3e-05,-2e-05,-2e-05,1,32.0
2061,-2e-05,-4e-05,-2e-05,-2e-05,1e-05,-3e-05,-2e-05,-2e-05,1,32.0
2062,-2e-05,-4e-05,-2e-05,-2e-05,1e-05,-3e-05,-2e-05,-2e-05,1,32.0
2063,-2e-05,-4e-05,-2e-05,-2e-05,1e-05,-3e-05,-2e-05,-2e-05,1,32.0
2064,-2e-05,-4e-05,-2e-05,-2e-05,1e-05,-3e-05,-2e-05,-2e-05,1,32.0
2065,-2e-05,-4e-05,-2e-05,-2e-05,1e-05,-3e-05,-2e-05,-2e-05,1,32.0
2066,-2e-05,-4e-05,-2e-05,-2e-05,1e-05,-3e-05,-2e-05,-2e-05,1,32.0
2067,-2e-05,-4e-05,-2e-05,-2e-05,1e-05,-3e-05,-2e-05,-2e-05,1,32.0
2068,-2e-05,-4e-05,-2e-05,-2e-05,1e-05,-3e-05,-2e-05,-2e-05,1,32.0
2069,-2e-05,-4e-05,-2e-05,-2e-05,1e-05,-3e-05,-2e-05,-2e-05,1,32.0
2070,-2e-05,-4e-05,-2e-05,-2e-05,1e-05,-3e-05,-2e-05,-2e-05,1,32.0
2071,0.0,-1e-05,2e-05,1e-05,2e-05,-8e-05,-2e-05,-1e-05,1,32.0
2072,0.0,-3e-05,0.0,0.0,0.0,1e-05,0.0,-1e-05,1,32.0
2073,0.0,-3e-05,0.0,0.0,0.0,1e-05,0.0,-1e-05,1,32.0
2074,0.0,-3e-05,0.0,0.0,0.0,1e-05,0.0,-1e-05,1,32.0
2075,0.0,-3e-05,0.0,0.0,0.0,1e-05,0.0,-1e-05,1,32.0
2076,0.0,-3e-05,0.0,0.0,0.0,1e-05,0.0,-1e-05,1,32.0
2077,-3e-05,-2e-05,-5e-05,-0.0001,-5e-05,-3e-05,0.0,0.0,1,32.0
2078,-3e-05,-2e-05,-5e-05,-0.0001,-5e-05,-3e-05,0.0,0.0,1,32.0
2079,-3e-05,-2e-05,-5e-05,-0.0001,-5e-05,-3e-05,0.0,0.0,1,32.0
2080,-3e-05,-2e-05,-5e-05,-0.0001,-5e-05,-3e-05,0.0,0.0,1,32.0
2081,-3e-05,-2e-05,-5e-05,-0.0001,-5e-05,-3e-05,0.0,0.0,1,32.0
2082,-3e-05,-2e-05,-5e-05,-0.0001,-5e-05,-3e-05,0.0,0.0,1,32.0
2083,-3e-05,-2e-05,-5e-05,-0.0001,-5e-05,-3e-05,0.0,0.0,1,32.0
2084,-3e-05,-2e-05,-5e-05,-0.0001,-5e-05,-3e-05,0.0,0.0,1,32.0
2085,-3e-05,-2e-05,-5e-05,-0.0001,-5e-05,-3e-05,0.0,0.0,1,32.0
2086,-3e-05,-2e-05,-5e-05,-0.0001,-5e-05,-3e-05,0.0,0.0,1,32.0
2088,-3e-05,-2e-05,-5e-05,-0.0001,-5e-05,-3e-05,0.0,0.0,1,32.0
2089,-3e-05,-2e-05,-5e-05,-0.0001,-5e-05,-3e-05,0.0,0.0,1,32.0
2090,-3e-05,-2e-05,-5e-05,-0.0001,-5e-05,-3e-05,0.0,0.0,1,32.0
2091,-3e-05,-2e-05,-5e-05,-0.0001,-5e-05,-3e-05,0.0,0.0,1,32.0
2092,-1e-05,2e-05,1e-05,1e-05,4e-05,6e-05,1e-05,1e-05,1,32.0
2093,-1e-05,2e-05,1e-05,1e-05,4e-05,6e-05,1e-05,1e-05,1,32.0
2094,-1e-05,2e-05,1e-05,1e-05,4e-05,6e-05,1e-05,1e-05,1,32.0
2095,-1e-05,2e-05,1e-05,1e-05,4e-05,6e-05,1e-05,1e-05,1,32.0
2096,-1e-05,2e-05,1e-05,1e-05,4e-05,6e-05,1e-05,1e-05,1,32.0
2097,-1e-05,2e-05,1e-05,1e-05,4e-05,6e-05,1e-05,1e-05,1,32.0
2098,-1e-05,2e-05,1e-05,1e-05,4e-05,6e-05,1e-05,1e-05,1,32.0
2099,-1e-05,2e-05,1e-05,1e-05,4e-05,6e-05,1e-05,1e-05,1,32.0
2100,-1e-05,2e-05,1e-05,1e-05,4e-05,6e-05,1e-05,1e-05,1,32.0
2101,-1e-05,-3e-05,-5e-05,1e-05,0.0,4e-05,2e-05,0.0,1,32.0
2102,-1e-05,-2e-05,0.0,0.0,-5e-05,-1e-05,-2e-05,-1e-05,1,32.0
2103,-1e-05,-2e-05,0.0,0.0,-5e-05,-1e-05,-2e-05,-1e-05,1,32.0
2104,-1e-05,-2e-05,0.0,0.0,-5e-05,-1e-05,-2e-05,-1e-05,1,32.0
2105,-1e-05,-2e-05,0.0,0.0,-5e-05,-1e-05,-2e-05,-1e-05,1,32.0
2106,-1e-05,-2e-05,0.0,0.0,-5e-05,-1e-05,-2e-05,-1e-05,1,32.0
2107,-1e-05,-2e-05,0.0,0.0,-5e-05,-1e-05,-2e-05,-1e-05,1,32.0
2108,-1e-05,-2e-05,0.0,0.0,-5e-05,-1e-05,-2e-05,-1e-05,1,32.0
2109,-1e-05,-2e-05,0.0,0.0,-5e-05,-1e-05,-2e-05,-1e-05,1,32.0
2110,-1e-05,-2e-05,0.0,0.0,-5e-05,-1e-05,-2e-05,-1e-05,1,32.0
2111,-1e-05,-2e-05,0.0,0.0,-5e-05,-1e-05,-2e-05,-1e-05,1,32.0
2112,-1e-05,-2e-05,0.0,0.0,-5e-05,-1e-05,-2e-05,-1e-05,1,32.0
2113,-1e-05,-2e-05,0.0,0.0,-5e-05,-1e-05,-2e-05,-1e-05,1,32.0
2114,-1e-05,-2e-05,0.0,0.0,-5e-05,-1e-05,-2e-05,-1e-05,1,32.0
2115,-1e-05,-2e-05,0.0,0.0,-5e-05,-1e-05,-2e-05,-1e-05,1,32.0
2116,-1e-05,-2e-05,0.0,0.0,-5e-05,-1e-05,-2e-05,-1e-05,1,32.0
2117,-1e-05,-2e-05,0.0,0.0,-5e-05,-1e-05,-2e-05,-1e-05,1,32.0
2118,-1e-05,-2e-05,0.0,0.0,-5e-05,-1e-05,-2e-05,-1e-05,1,32.0
2119,-1e-05,-2e-05,0.0,0.0,-5e-05,-1e-05,-2e-05,-1e-05,1,32.0
2120,-1e-05,-2e-05,0.0,0.0,-5e-05,-1e-05,-2e-05,-1e-05,1,32.0
2121,-1e-05,-2e-05,0.0,0.0,-5e-05,-1e-05,-2e-05,-1e-05,1,32.0
2122,-1e-05,-2e-05,0.0,0.0,-5e-05,-1e-05,-2e-05,-1e-05,1,32.0
2123,-3e-05,-1e-05,-2e-05,1e-05,-5e-05,-5e-05,-2e-05,-1e-05,1,32.0
2124,-3e-05,-1e-05,-2e-05,1e-05,-5e-05,-5e-05,-2e-05,-1e-05,1,32.0
2125,-1e-05,-1e-05,0.0,-2e-05,-3e-05,0.0,2e-05,0.0,1,32.0
2126,-1e-05,-1e-05,0.0,-2e-05,-3e-05,0.0,2e-05,0.0,1,32.0
2127,-1e-05,-1e-05,0.0,-2e-05,-3e-05,0.0,2e-05,0.0,1,32.0
2128,-1e-05,-1e-05,0.0,-2e-05,-3e-05,0.0,2e-05,0.0,1,32.0
2129,-1e-05,-1e-05,0.0,-2e-05,-3e-05,0.0,2e-05,0.0,1,32.0
2130,-1e-05,-1e-05,0.0,-2e-05,-3e-05,0.0,2e-05,0.0,1,32.0
2131,-1e-05,-1e-05,0.0,-2e-05,-3e-05,0.0,2e-05,0.0,1,32.0
2132,-1e-05,-1e-05,0.0,-2e-05,-3e-05,0.0,2e-05,0.0,1,32.0
2133,-1e-05,-1e-05,0.0,-2e-05,-3e-05,0.0,2e-05,0.0,1,32.0
2134,-1e-05,-1e-05,0.0,-2e-05,-3e-05,0.0,2e-05,0.0,1,32.0
2135,-1e-05,-1e-05,0.0,-2e-05,-3e-05,0.0,2e-05,0.0,1,32.0
2136,-1e-05,-1e-05,0.0,-2e-05,-3e-05,0.0,2e-05,0.0,1,32.0
2138,0.0,2e-05,4e-05,0.0,-1e-05,-3e-05,-4e-05,0.0,1,32.0
2139,0.0,2e-05,4e-05,0.0,-1e-05,-3e-05,-4e-05,0.0,1,32.0
2140,0.0,2e-05,4e-05,0.0,-1e-05,-3e-05,-4e-05,0.0,1,32.0
2141,0.0,2e-05,4e-05,0.0,-1e-05,-3e-05,-4e-05,0.0,1,32.0
2142,0.0,2e-05,4e-05,0.0,-1e-05,-3e-05,-4e-05,0.0,1,32.0
2143,0.0,2e-05,4e-05,0.0,-1e-05,-3e-05,-4e-05,0.0,1,32.0
2144,0.0,2e-05,4e-05,0.0,-1e-05,-3e-05,-4e-05,0.0,1,32.0
2145,0.0,2e-05,4e-05,0.0,-1e-05,-3e-05,-4e-05,0.0,1,32.0
2146,-2e-05,-4e-05,-2e-05,-1e-05,-6e-05,-7e-05,-2e-05,0.0,1,32.0
2147,-2e-05,-4e-05,-2e-05,-1e-05,-6e-05,-7e-05,-2e-05,0.0,1,32.0
2148,-2e-05,-4e-05,-2e-05,-1e-05,-6e-05,-7e-05,-2e-05,0.0,1,32.0
2149,-2e-05,-4e-05,-2e-05,-1e-05,-6e-05,-7e-05,-2e-05,0.0,1,32.0
2150,-2e-05,-4e-05,-2e-05,-1e-05,-6e-05,-7e-05,-2e-05,0.0,1,32.0
2151,-2e-05,-4e-05,-2e-05,-1e-05,-6e-05,-7e-05,-2e-05,0.0,1,32.0
2152,-2e-05,-4e-05,-2e-05,-1e-05,-6e-05,-7e-05,-2e-05,0.0,1,32.0
2153,-2e-05,-4e-05,-2e-05,-1e-05,-6e-05,-7e-05,-2e-05,0.0,1,32.0
2154,-2e-05,-4e-05,-2e-05,-1e-05,-6e-05,-7e-05,-2e-05,0.0,1,32.0
2155,-2e-05,-4e-05,-2e-05,-1e-05,-6e-05,-7e-05,-2e-05,0.0,1,32.0
2156,-2e-05,-4e-05,-2e-05,-1e-05,-6e-05,-7e-05,-2e-05,0.0,1,32.0
2157,-2e-05,-4e-05,-2e-05,-1e-05,-6e-05,-7e-05,-2e-05,0.0,1,32.0
2158,-2e-05,-4e-05,-2e-05,-1e-05,-6e-05,-7e-05,-2e-05,0.0,1,32.0
2159,-2e-05,-4e-05,-2e-05,-1e-05,-6e-05,-7e-05,-2e-05,0.0,1,32.0
2160,-2e-05,-4e-05,-2e-05,-1e-05,-6e-05,-7e-05,-2e-05,0.0,1,32.0
2161,1e-05,-1e-05,1e-05,3e-05,-2e-05,-3e-05,-1e-05,-1e-05,1,32.0
2162,0.0,-1e-05,1e-05,-2e-05,3e-05,5e-05,-1e-05,-2e-05,1,32.0
2163,0.0,-1e-05,1e-05,-2e-05,3e-05,5e-05,-1e-05,-2e-05,1,32.0
2164,0.0,-1e-05,1e-05,-2e-05,3e-05,5e-05,-1e-05,-2e-05,1,32.0
2165,0.0,-1e-05,1e-05,-2e-05,3e-05,5e-05,-1e-05,-2e-05,1,32.0
2166,0.0,-1e-05,1e-05,-2e-05,3e-05,5e-05,-1e-05,-2e-05,1,32.0
2167,0.0,-1e-05,1e-05,-2e-05,3e-05,5e-05,-1e-05,-2e-05,1,32.0
2168,0.0,-1e-05,1e-05,-2e-05,3e-05,5e-05,-1e-05,-2e-05,1,32.0
2169,0.0,-1e-05,1e-05,-2e-05,3e-05,5e-05,-1e-05,-2e-05,1,32.0
2170,0.0,-1e-05,1e-05,-2e-05,3e-05,5e-05,-1e-05,-2e-05,1,32.0
2171,0.0,-1e-05,1e-05,-2e-05,3e-05,5e-05,-1e-05,-2e-05,1,32.0
2172,0.0,-1e-05,1e-05,-2e-05,3e-05,5e-05,-1e-05,-2e-05,1,32.0
2173,0.0,-1e-05,1e-05,-2e-05,3e-05,5e-05,-1e-05,-2e-05,1,32.0
2174,0.0,-1e-05,1e-05,-2e-05,3e-05,5e-05,-1e-05,-2e-05,1,32.0
2175,0.0,-1e-05,1e-05,-2e-05,3e-05,5e-05,-1e-05,-2e-05,1,32.0
2176,0.0,-1e-05,1e-05,-2e-05,3e-05,5e-05,-1e-05,-2e-05,1,32.0
2177,0.0,-1e-05,1e-05,-2e-05,3e-05,5e-05,-1e-05,-2e-05,1,32.0
2178,0.0,-1e-05,1e-05,-2e-05,3e-05,5e-05,-1e-05,-2e-05,1,32.0
2179,0.0,-1e-05,1e-05,-2e-05,3e-05,5e-05,-1e-05,-2e-05,1,32.0
2180,0.0,-1e-05,1e-05,-2e-05,3e-05,5e-05,-1e-05,-2e-05,1,32.0
2181,0.0,-1e-05,1e-05,-2e-05,3e-05,5e-05,-1e-05,-2e-05,1,32.0
2182,0.0,-1e-05,1e-05,-2e-05,3e-05,5e-05,-1e-05,-2e-05,1,32.0
2183,-1e-05,0.0,2e-05,-2e-05,-3e-05,-1e-05,-1e-05,-1e-05,1,32.0
2184,-1e-05,0.0,2e-05,-2e-05,-3e-05,-1e-05,-1e-05,-1e-05,1,32.0
2185,-1e-05,-1e-05,-5e-05,-3e-05,-2e-05,-5e-05,-1e-05,0.0,1,32.0
2186,-1e-05,-1e-05,-5e-05,-3e-05,-2e-05,-5e-05,-1e-05,0.0,1,32.0
2188,-1e-05,-1e-05,-5e-05,-3e-05,-2e-05,-5e-05,-1e-05,0.0,1,32.0
2189,-1e-05,-1e-05,-5e-05,-3e-05,-2e-05,-5e-05,-1e-05,0.0,1,32.0
2190,-1e-05,-1e-05,-5e-05,-3e-05,-2e-05,-5e-05,-1e-05,0.0,1,32.0
2191,-1e-05,-1e-05,-5e-05,-3e-05,-2e-05,-5e-05,-1e-05,0.0,1,32.0
2192,-1e-05,-1e-05,-5e-05,-3e-05,-2e-05,-5e-05,-1e-05,0.0,1,32.0
2193,-1e-05,-1e-05,-5e-05,-3e-05,-2e-05,-5e-05,-1e-05,0.0,1,32.0
2194,-1e-05,-1e-05,-5e-05,-3e-05,-2e-05,-5e-05,-1e-05,0.0,1,32.0
2195,-1e-05,-1e-05,-5e-05,-3e-05,-2e-05,-5e-05,-1e-05,0.0,1,32.0
2196,-1e-05,-1e-05,-5e-05,-3e-05,-2e-05,-5e-05,-1e-05,0.0,1,32.0
2197,0.0,1e-05,2e-05,8e-05,-1e-05,0.0,2e-05,0.0,1,32.0
2198,0.0,1e-05,2e-05,8e-05,-1e-05,0.0,2e-05,0.0,1,32.0
2199,0.0,1e-05,2e-05,8e-05,-1e-05,0.0,2e-05,0.0,1,32.0
2200,0.0,1e-05,2e-05,8e-05,-1e-05,0.0,2e-05,0.0,1,32.0
2201,0.0,1e-05,2e-05,8e-05,-1e-05,0.0,2e-05,0.0,1,32.0
2202,0.0,1e-05,2e-05,8e-05,-1e-05,0.0,2e-05,0.0,1,32.0
2203,0.0,1e-05,2e-05,8e-05,-1e-05,0.0,2e-05,0.0,1,32.0
2204,0.0,1e-05,2e-05,8e-05,-1e-05,0.0,2e-05,0.0,1,32.0
2205,0.0,1e-05,2e-05,8e-05,-1e-05,0.0,2e-05,0.0,1,32.0
2206,-1e-05,2e-05,-1e-05,1e-05,-2e-05,-3e-05,-3e-05,0.0,1,32.0
2207,-1e-05,2e-05,-1e-05,1e-05,-2e-05,-3e-05,-3e-05,0.0,1,32.0
2208,-1e-05,2e-05,-1e-05,1e-05,-2e-05,-3e-05,-3e-05,0.0,1,32.0
2209,-1e-05,2e-05,-1e-05,1e-05,-2e-05,-3e-05,-3e-05,0.0,1,32.0
2210,-1e-05,2e-05,-1e-05,1e-05,-2e-05,-3e-05,-3e-05,0.0,1,32.0
2211,-1e-05,2e-05,-1e-05,1e-05,-2e-05,-3e-05,-3e-05,0.0,1,32.0
2212,-1e-05,2e-05,-1e-05,1e-05,-2e-05,-3e-05,-3e-05,0.0,1,32.0
2213,-1e-05,2e-05,-1e-05,1e-05,-2e-05,-3e-05,-3e-05,0.0,1,32.0
2214,-1e-05,2e-05,-1e-05,1e-05,-2e-05,-3e-05,-3e-05,0.0,1,32.0
2215,-1e-05,2e-05,-1e-05,1e-05,-2e-05,-3e-05,-3e-05,0.0,1,32.0
2216,-1e-05,2e-05,-1e-05,1e-05,-2e-05,-3e-05,-3e-05,0.0,1,32.0
2217,-1e-05,2e-05,-1e-05,1e-05,-2e-05,-3e-05,-3e-05,0.0,1,32.0
2218,-1e-05,2e-05,-1e-05,1e-05,-2e-05,-3e-05,-3e-05,0.0,1,32.0
2219,-1e-05,2e-05,-1e-05,1e-05,-2e-05,-3e-05,-3e-05,0.0,1,32.0
2220,-1e-05,2e-05,-1e-05,1e-05,-2e-05,-3e-05,-3e-05,0.0,1,32.0
2221,-1e-05,-3e-05,-6e-05,-1e-05,1e-05,0.0,2e-05,0.0,1,32.0
2222,-1e-05,-2e-05,3e-05,5e-05,2e-05,-4e-05,-2e-05,-1e-05,1,32.0
2223,-1e-05,-2e-05,3e-05,5e-05,2e-05,-4e-05,-2e-05,-1e-05,1,32.0
2224,-1e-05,-2e-05,3e-05,5e-05,2e-05,-4e-05,-2e-05,-1e-05,1,32.0
2225,-1e-05,-2e-05,3e-05,5e-05,2e-05,-4e-05,-2e-05,-1e-05,1,32.0
2226,-1e-05,-2e-05,3e-05,5e-05,2e-05,-4e-05,-2e-05,-1e-05,1,32.0
2227,-1e-05,-2e-05,3e-05,5e-05,2e-05,-4e-05,-2e-05,-1e-05,1,32.0
2228,-1e-05,-2e-05,3e-05,5e-05,2e-05,-4e-05,-2e-05,-1e-05,1,32.0
2229,-1e-05,-2e-05,3e-05,5e-05,2e-05,-4e-05,-2e-05,-1e-05,1,32.0
2230,-1e-05,-2e-05,3e-05,5e-05,2e-05,-4e-05,-2e-05,-1e-05,1,32.0
2231,-1e-05,-2e-05,3e-05,5e-05,2e-05,-4e-05,-2e-05,-1e-05,1,32.0
2232,-1e-05,-2e-05,3e-05,5e-05,2e-05,-4e-05,-2e-05,-1e-05,1,32.0
2233,-1e-05,-2e-05,3e-05,5e-05,2e-05,-4e-05,-2e-05,-1e-05,1,32.0
2234,-1e-05,-2e-05,3e-05,5e-05,2e-05,-4e-05,-2e-05,-1e-05,1,32.0
2235,-1e-05,-2e-05,3e-05,5e-05,2e-05,-4e-05,-2e-05,-1e-05,1,32.0
2236,-1e-05,-2e-05,3e-05,5e-05,2e-05,-4e-05,-2e-05,-1e-05,1,32.0
2238,-1e-05,-2e-05,3e-05,5e-05,2e-05,-4e-05,-2e-05,-1e-05,1,32.0
2239,-1e-05,-2e-05,3e-05,5e-05,2e-05,-4e-05,-2e-05,-1e-05,1,32.0
2240,-1e-05,-2e-05,3e-05,5e-05,2e-05,-4e-05,-2e-05,-1e-05,1,32.0
2241,-1e-05,-2e-05,3e-05,5e-05,2e-05,-4e-05,-2e-05,-1e-05,1,32.0
2242,-1e-05,-2e-05,3e-05,5e-05,2e-05,-4e-05,-2e-05,-1e-05,1,32.0
2243,-1e-05,0.0,1e-05,-1e-05,1e-05,-6e-05,-1e-05,-2e-05,1,32.0
2244,-1e-05,0.0,1e-05,-1e-05,1e-05,-6e-05,-1e-05,-2e-05,1,32.0
2245,-1e-05,-4e-05,-5e-05,1e-05,-1e-05,3e-05,0.0,0.0,1,32.0
2246,-1e-05,-4e-05,-5e-05,1e-05,-1e-05,3e-05,0.0,0.0,1,32.0
2247,-1e-05,-4e-05,-5e-05,1e-05,-1e-05,3e-05,0.0,0.0,1,32.0
2248,-1e-05,-4e-05,-5e-05,1e-05,-1e-05,3e-05,0.0,0.0,1,32.0
2249,-1e-05,-4e-05,-5e-05,1e-05,-1e-05,3e-05,0.0,0.0,1,32.0
2250,-1e-05,-4e-05,-5e-05,1e-05,-1e-05,3e-05,0.0,0.0,1,32.0
2251,-1e-05,-4e-05,-5e-05,1e-05,-1e-05,3e-05,0.0,0.0,1,32.0
2252,-1e-05,-4e-05,-5e-05,1e-05,-1e-05,3e-05,0.0,0.0,1,32.0
2253,-1e-05,-4e-05,-5e-05,1e-05,-1e-05,3e-05,0.0,0.0,1,32.0
2254,-1e-05,-4e-05,-5e-05,1e-05,-1e-05,3e-05,0.0,0.0,1,32.0
2255,-1e-05,-4e-05,-5e-05,1e-05,-1e-05,3e-05,0.0,0.0,1,32.0
2256,-1e-05,-4e-05,-5e-05,1e-05,-1e-05,3e-05,0.0,0.0,1,32.0
2257,-1e-05,-4e-05,-5e-05,1e-05,-1e-05,3e-05,0.0,0.0,1,32.0
2258,-1e-05,-4e-05,-5e-05,1e-05,-1e-05,3e-05,0.0,0.0,1,32.0
2259,-1e-05,-4e-05,-5e-05,1e-05,-1e-05,3e-05,0.0,0.0,1,32.0
2260,-1e-05,-4e-05,-5e-05,1e-05,-1e-05,3e-05,0.0,0.0,1,32.0
2261,-1e-05,-4e-05,-5e-05,1e-05,-1e-05,3e-05,0.0,0.0,1,32.0
2262,-1e-05,-4e-05,-5e-05,1e-05,-1e-05,3e-05,0.0,0.0,1,32.0
2263,-1e-05,-4e-05,-5e-05,1e-05,-1e-05,3e-05,0.0,0.0,1,32.0
2264,-1e-05,-4e-05,-5e-05,1e-05,-1e-05,3e-05,0.0,0.0,1,32.0
2265,-1e-05,-4e-05,-5e-05,1e-05,-1e-05,3e-05,0.0,0.0,1,32.0
2266,0.0,-3e-05,-4e-05,-2e-05,1e-05,0.0,-1e-05,-2e-05,1,32.0
2267,-2e-05,1e-05,1e-05,1e-05,-2e-05,-1e-05,0.0,0.0,1,32.0
2268,-2e-05,1e-05,1e-05,1e-05,-2e-05,-1e-05,0.0,0.0,1,32.0
2269,-2e-05,1e-05,1e-05,1e-05,-2e-05,-1e-05,0.0,0.0,1,32.0
2270,-2e-05,1e-05,1e-05,1e-05,-2e-05,-1e-05,0.0,0.0,1,32.0
2271,-2e-05,1e-05,1e-05,1e-05,-2e-05,-1e-05,0.0,0.0,1,32.0
2272,-2e-05,1e-05,1e-05,1e-05,-2e-05,-1e-05,0.0,0.0,1,32.0
2273,-2e-05,1e-05,1e-05,1e-05,-2e-05,-1e-05,0.0,0.0,1,32.0
2274,-2e-05,1e-05,1e-05,1e-05,-2e-05,-1e-05,0.0,0.0,1,32.0
2275,-2e-05,1e-05,1e-05,1e-05,-2e-05,-1e-05,0.0,0.0,1,32.0
2276,-2e-05,1e-05,1e-05,1e-05,-2e-05,-1e-05,0.0,0.0,1,32.0
2277,-2e-05,1e-05,1e-05,1e-05,-2e-05,-1e-05,0.0,0.0,1,32.0
2278,-2e-05,1e-05,1e-05,1e-05,-2e-05,-1e-05,0.0,0.0,1,32.0
2279,-2e-05,1e-05,1e-05,1e-05,-2e-05,-1e-05,0.0,0.0,1,32.0
2280,-2e-05,1e-05,1e-05,1e-05,-2e-05,-1e-05,0.0,0.0,1,32.0
2281,-1e-05,1e-05,0.0,-0.00012,-5e-05,1e-05,-2e-05,0.0,1,32.0
2282,-1e-05,-1e-05,-2e-05,-1e-05,-2e-05,-5e-05,-2e-05,-2e-05,1,32.0
2283,-1e-05,-1e-05,-2e-05,-1e-05,-2e-05,-5e-05,-2e-05,-2e-05,1,32.0
2284,-1e-05,-1e-05,-2e-05,-1e-05,-2e-05,-5e-05,-2e-05,-2e-05,1,32.0
2285,-1e-05,-1e-05,-2e-05,-1e-05,-2e-05,-5e-05,-2e-05,-2e-05,1,32.0
2286,-1e-05,-1e-05,-2e-05,-1e-05,-2e-05,-5e-05,-2e-05,-2e-05,1,32.0
2288,-1e-05,-1e-05,-2e-05,-1e-05,-2e-05,-5e-05,-2e-05,-2e-05,1,32.0
2289,-1e-05,-1e-05,-2e-05,-1e-05,-2e-05,-5e-05,-2e-05,-2e-05,1,32.0
2290,-1e-05,-1e-05,-2e-05,-1e-05,-2e-05,-5e-05,-2e-05,-2e-05,1,32.0
2291,-1e-05,-1e-05,-2e-05,-1e-05,-2e-05,-5e-05,-2e-05,-2e-05,1,32.0
2292,-1e-05,-1e-05,-2e-05,-1e-05,-2e-05,-5e-05,-2e-05,-2e-05,1,32.0
2293,-1e-05,-1e-05,-2e-05,-1e-05,-2e-05,-5e-05,-2e-05,-2e-05,1,32.0
2294,-1e-05,-1e-05,-2e-05,-1e-05,-2e-05,-5e-05,-2e-05,-2e-05,1,32.0
2295,-1e-05,-1e-05,-2e-05,-1e-05,-2e-05,-5e-05,-2e-05,-2e-05,1,32.0
2296,-1e-05,-1e-05,-2e-05,-1e-05,-2e-05,-5e-05,-2e-05,-2e-05,1,32.0
2297,-1e-05,-1e-05,-2e-05,-1e-05,-2e-05,-5e-05,-2e-05,-2e-05,1,32.0
2298,-1e-05,-1e-05,-2e-05,-1e-05,-2e-05,-5e-05,-2e-05,-2e-05,1,32.0
2299,-1e-05,-1e-05,-2e-05,-1e-05,-2e-05,-5e-05,-2e-05,-2e-05,1,32.0
2300,-1e-05,-1e-05,-2e-05,-1e-05,-2e-05,-5e-05,-2e-05,-2e-05,1,32.0
2301,-1e-05,-1e-05,-2e-05,-1e-05,-2e-05,-5e-05,-2e-05,-2e-05,1,32.0
2302,-1e-05,-1e-05,-2e-05,-1e-05,-2e-05,-5e-05,-2e-05,-2e-05,1,32.0
2303,-2e-05,0.0,0.0,-1e-05,-3e-05,-2e-05,-1e-05,0.0,1,32.0
2304,-2e-05,0.0,0.0,-1e-05,-3e-05,-2e-05,-1e-05,0.0,1,32.0
2305,-2e-05,0.0,0.0,-1e-05,-3e-05,-2e-05,-1e-05,0.0,1,32.0
2306,-2e-05,0.0,0.0,-1e-05,-3e-05,-2e-05,-1e-05,0.0,1,32.0
2307,-2e-05,0.0,0.0,-1e-05,-3e-05,-2e-05,-1e-05,0.0,1,32.0
2308,-2e-05,0.0,0.0,-1e-05,-3e-05,-2e-05,-1e-05,0.0,1,32.0
2309,0.0,2e-05,1e-05,2e-05,0.0,-2e-05,-1e-05,0.0,1,32.0
2310,0.0,2e-05,1e-05,2e-05,0.0,-2e-05,-1e-05,0.0,1,32.0
2311,0.0,2e-05,1e-05,2e-05,0.0,-2e-05,-1e-05,0.0,1,32.0
2312,0.0,2e-05,1e-05,2e-05,0.0,-2e-05,-1e-05,0.0,1,32.0
2313,0.0,2e-05,1e-05,2e-05,0.0,-2e-05,-1e-05,0.0,1,32.0
2314,0.0,2e-05,1e-05,2e-05,0.0,-2e-05,-1e-05,0.0,1,32.0
2315,0.0,2e-05,1e-05,2e-05,0.0,-2e-05,-1e-05,0.0,1,32.0
2316,0.0,2e-05,1e-05,2e-05,0.0,-2e-05,-1e-05,0.0,1,32.0
2317,0.0,2e-05,1e-05,2e-05,0.0,-2e-05,-1e-05,0.0,1,32.0
2318,0.0,2e-05,1e-05,2e-05,0.0,-2e-05,-1e-05,0.0,1,32.0
2319,0.0,2e-05,1e-05,2e-05,0.0,-2e-05,-1e-05,0.0,1,32.0
2320,0.0,2e-05,1e-05,2e-05,0.0,-2e-05,-1e-05,0.0,1,32.0
2321,0.0,2e-05,1e-05,2e-05,0.0,-2e-05,-1e-05,0.0,1,32.0
2322,0.0,2e-05,1e-05,2e-05,0.0,-2e-05,-1e-05,0.0,1,32.0
2323,0.0,2e-05,1e-05,2e-05,0.0,-2e-05,-1e-05,0.0,1,32.0
2324,0.0,2e-05,1e-05,2e-05,0.0,-2e-05,-1e-05,0.0,1,32.0
2325,0.0,2e-05,1e-05,2e-05,0.0,-2e-05,-1e-05,0.0,1,32.0
2326,0.0,2e-05,1e-05,2e-05,0.0,-2e-05,-1e-05,0.0,1,32.0
2327,0.0,2e-05,1e-05,2e-05,0.0,-2e-05,-1e-05,0.0,1,32.0
2328,0.0,2e-05,1e-05,2e-05,0.0,-2e-05,-1e-05,0.0,1,32.0
2329,0.0,2e-05,1e-05,2e-05,0.0,-2e-05,-1e-05,0.0,1,32.0
2330,0.0,2e-05,1e-05,2e-05,0.0,-2e-05,-1e-05,0.0,1,32.0
2331,0.0,2e-05,1e-05,2e-05,0.0,-2e-05,-1e-05,0.0,1,32.0
2332,0.0,2e-05,1e-05,2e-05,0.0,-2e-05,-1e-05,0.0,1,32.0
2333,-2e-05,-4e-05,-4e-05,-2e-05,1e-05,-1e-05,-2e-05,-1e-05,1,32.0
2334,-2e-05,-4e-05,-4e-05,-2e-05,1e-05,-1e-05,-2e-05,-1e-05,1,32.0
2335,0.0,0.0,-3e-05,-5e-05,-2e-05,2e-05,0.0,0.0,1,32.0
2336,0.0,0.0,-3e-05,-5e-05,-2e-05,2e-05,0.0,0.0,1,32.0
2338,0.0,0.0,-3e-05,-5e-05,-2e-05,2e-05,0.0,0.0,1,32.0
2339,0.0,0.0,-3e-05,-5e-05,-2e-05,2e-05,0.0,0.0,1,32.0
2340,0.0,0.0,-3e-05,-5e-05,-2e-05,2e-05,0.0,0.0,1,32.0
2341,0.0,0.0,-3e-05,-5e-05,-2e-05,2e-05,0.0,0.0,1,32.0
2342,0.0,0.0,-3e-05,-5e-05,-2e-05,2e-05,0.0,0.0,1,32.0
2343,0.0,0.0,-3e-05,-5e-05,-2e-05,2e-05,0.0,0.0,1,32.0
2344,0.0,0.0,-3e-05,-5e-05,-2e-05,2e-05,0.0,0.0,1,32.0
2345,0.0,0.0,-3e-05,-5e-05,-2e-05,2e-05,0.0,0.0,1,32.0
2346,0.0,0.0,-3e-05,-5e-05,-2e-05,2e-05,0.0,0.0,1,32.0
2347,0.0,0.0,-3e-05,-5e-05,-2e-05,2e-05,0.0,0.0,1,32.0
2348,0.0,-1e-05,-2e-05,2e-05,-4e-05,-1e-05,-2e-05,-1e-05,1,32.0
2349,0.0,-1e-05,-2e-05,2e-05,-4e-05,-1e-05,-2e-05,-1e-05,1,32.0
2350,-3e-05,-3e-05,-2e-05,-6e-05,-4e-05,-1e-05,-1e-05,0.0,1,32.0
2351,-3e-05,-3e-05,-2e-05,-6e-05,-4e-05,-1e-05,-1e-05,0.0,1,32.0
2352,-3e-05,-3e-05,-2e-05,-6e-05,-4e-05,-1e-05,-1e-05,0.0,1,32.0
2353,-3e-05,-3e-05,-2e-05,-6e-05,-4e-05,-1e-05,-1e-05,0.0,1,32.0
2354,-3e-05,-3e-05,-2e-05,-6e-05,-4e-05,-1e-05,-1e-05,0.0,1,32.0
2355,-3e-05,-3e-05,-2e-05,-6e-05,-4e-05,-1e-05,-1e-05,0.0,1,32.0
2356,-3e-05,-3e-05,-2e-05,-6e-05,-4e-05,-1e-05,-1e-05,0.0,1,32.0
2357,-3e-05,-3e-05,-2e-05,-6e-05,-4e-05,-1e-05,-1e-05,0.0,1,32.0
2358,-3e-05,-3e-05,-2e-05,-6e-05,-4e-05,-1e-05,-1e-05,0.0,1,32.0
2359,-3e-05,-3e-05,-2e-05,-6e-05,-4e-05,-1e-05,-1e-05,0.0,1,32.0
2360,-3e-05,-3e-05,-2e-05,-6e-05,-4e-05,-1e-05,-1e-05,0.0,1,32.0
2361,-3e-05,-3e-05,-2e-05,-6e-05,-4e-05,-1e-05,-1e-05,0.0,1,32.0
2362,-3e-05,-3e-05,-2e-05,-6e-05,-4e-05,-1e-05,-1e-05,0.0,1,32.0
2363,-4e-05,-4e-05,-6e-05,-4e-05,2e-05,0.0,0.0,-1e-05,1,32.0
2364,0.0,1e-05,6e-05,0.00011,2e-05,5e-05,2e-05,-1e-05,1,32.0
2365,0.0,1e-05,6e-05,0.00011,2e-05,5e-05,2e-05,-1e-05,1,32.0
2366,0.0,1e-05,6e-05,0.00011,2e-05,5e-05,2e-05,-1e-05,1,32.0
2367,0.0,1e-05,6e-05,0.00011,2e-05,5e-05,2e-05,-1e-05,1,32.0
2368,0.0,1e-05,6e-05,0.00011,2e-05,5e-05,2e-05,-1e-05,1,32.0
2369,0.0,-2e-05,-2e-05,4e-05,1e-05,1e-05,-1e-05,-3e-05,1,32.0
2370,0.0,-2e-05,-2e-05,4e-05,1e-05,1e-05,-1e-05,-3e-05,1,32.0
2371,0.0,-2e-05,-2e-05,4e-05,1e-05,1e-05,-1e-05,-3e-05,1,32.0
2372,0.0,-2e-05,-2e-05,4e-05,1e-05,1e-05,-1e-05,-3e-05,1,32.0
2373,0.0,-2e-05,-2e-05,4e-05,1e-05,1e-05,-1e-05,-3e-05,1,32.0
2374,0.0,-2e-05,-2e-05,4e-05,1e-05,1e-05,-1e-05,-3e-05,1,32.0
2375,0.0,-2e-05,-2e-05,4e-05,1e-05,1e-05,-1e-05,-3e-05,1,32.0
2376,0.0,-2e-05,-2e-05,4e-05,1e-05,1e-05,-1e-05,-3e-05,1,32.0
2377,0.0,-2e-05,-2e-05,4e-05,1e-05,1e-05,-1e-05,-3e-05,1,32.0
2378,0.0,-2e-05,-2e-05,4e-05,1e-05,1e-05,-1e-05,-3e-05,1,32.0
2379,0.0,-2e-05,-2e-05,4e-05,1e-05,1e-05,-1e-05,-3e-05,1,32.0
2380,0.0,-2e-05,-2e-05,4e-05,1e-05,1e-05,-1e-05,-3e-05,1,32.0
2381,0.0,-2e-05,-2e-05,4e-05,1e-05,1e-05,-1e-05,-3e-05,1,32.0
2382,0.0,-2e-05,-2e-05,4e-05,1e-05,1e-05,-1e-05,-3e-05,1,32.0
2383,0.0,-2e-05,-2e-05,4e-05,1e-05,1e-05,-1e-05,-3e-05,1,32.0
2384,0.0,-2e-05,-2e-05,4e-05,1e-05,1e-05,-1e-05,-3e-05,1,32.0
2385,0.0,-2e-05,-2e-05,4e-05,1e-05,1e-05,-1e-05,-3e-05,1,32.0
2386,-2e-05,0.0,-5e-05,0.0,0.0,-1e-05,-2e-05,-1e-05,1,32.0
2388,0.0,2e-05,2e-05,-1e-05,-1e-05,0.0,0.0,-1e-05,1,32.0
2389,0.0,2e-05,2e-05,-1e-05,-1e-05,0.0,0.0,-1e-05,1,32.0
2390,0.0,2e-05,2e-05,-1e-05,-1e-05,0.0,0.0,-1e-05,1,32.0
2391,0.0,2e-05,2e-05,-1e-05,-1e-05,0.0,0.0,-1e-05,1,32.0
2392,0.0,2e-05,2e-05,-1e-05,-1e-05,0.0,0.0,-1e-05,1,32.0
2393,0.0,2e-05,2e-05,-1e-05,-1e-05,0.0,0.0,-1e-05,1,32.0
2394,0.0,2e-05,2e-05,-1e-05,-1e-05,0.0,0.0,-1e-05,1,32.0
2395,0.0,2e-05,2e-05,-1e-05,-1e-05,0.0,0.0,-1e-05,1,32.0
2396,0.0,2e-05,2e-05,-1e-05,-1e-05,0.0,0.0,-1e-05,1,32.0
2397,0.0,2e-05,2e-05,-1e-05,-1e-05,0.0,0.0,-1e-05,1,32.0
2398,0.0,2e-05,2e-05,-1e-05,-1e-05,0.0,0.0,-1e-05,1,32.0
2399,0.0,2e-05,2e-05,-1e-05,-1e-05,0.0,0.0,-1e-05,1,32.0
2400,0.0,0.0,0.0,-1e-05,5e-05,2e-05,1e-05,-3e-05,1,32.0
2401,0.0,0.0,0.0,-1e-05,5e-05,2e-05,1e-05,-3e-05,1,32.0
2402,0.0,0.0,0.0,-1e-05,5e-05,2e-05,1e-05,-3e-05,1,32.0
2403,0.0,0.0,0.0,-1e-05,5e-05,2e-05,1e-05,-3e-05,1,32.0
2404,0.0,0.0,0.0,-1e-05,5e-05,2e-05,1e-05,-3e-05,1,32.0
2405,0.0,0.0,0.0,-1e-05,5e-05,2e-05,1e-05,-3e-05,1,32.0
2406,0.0,0.0,0.0,-1e-05,5e-05,2e-05,1e-05,-3e-05,1,32.0
2407,-3e-05,-5e-05,-0.00013,-0.00011,2e-05,2e-05,0.0,-2e-05,1,32.0
2408,-3e-05,-5e-05,-0.00013,-0.00011,2e-05,2e-05,0.0,-2e-05,1,32.0
2409,-3e-05,-5e-05,-0.00013,-0.00011,2e-05,2e-05,0.0,-2e-05,1,32.0
2410,-3e-05,-5e-05,-0.00013,-0.00011,2e-05,2e-05,0.0,-2e-05,1,32.0
2411,-3e-05,-5e-05,-0.00013,-0.00011,2e-05,2e-05,0.0,-2e-05,1,32.0
2412,-3e-05,-5e-05,-0.00013,-0.00011,2e-05,2e-05,0.0,-2e-05,1,32.0
2413,-3e-05,-5e-05,-0.00013,-0.00011,2e-05,2e-05,0.0,-2e-05,1,32.0
2414,-3e-05,-5e-05,-0.00013,-0.00011,2e-05,2e-05,0.0,-2e-05,1,32.0
2415,-3e-05,-5e-05,-0.00013,-0.00011,2e-05,2e-05,0.0,-2e-05,1,32.0
2416,-3e-05,-5e-05,-0.00013,-0.00011,2e-05,2e-05,0.0,-2e-05,1,32.0
2417,-3e-05,-5e-05,-0.00013,-0.00011,2e-05,2e-05,0.0,-2e-05,1,32.0
2418,-3e-05,-5e-05,-0.00013,-0.00011,2e-05,2e-05,0.0,-2e-05,1,32.0
2419,-3e-05,-5e-05,-0.00013,-0.00011,2e-05,2e-05,0.0,-2e-05,1,32.0
2420,-3e-05,-5e-05,-0.00013,-0.00011,2e-05,2e-05,0.0,-2e-05,1,32.0
2421,-3e-05,-5e-05,-0.00013,-0.00011,2e-05,2e-05,0.0,-2e-05,1,32.0
2422,-3e-05,-5e-05,-0.00013,-0.00011,2e-05,2e-05,0.0,-2e-05,1,32.0
2423,1e-05,0.0,2e-05,-2e-05,-4e-05,1e-05,-1e-05,-3e-05,1,32.0
2424,1e-05,0.0,2e-05,-2e-05,-4e-05,1e-05,-1e-05,-3e-05,1,32.0
2425,-1e-05,-2e-05,-2e-05,3e-05,-5e-05,0.0,-3e-05,-1e-05,1,32.0
2426,-1e-05,-2e-05,-2e-05,3e-05,-5e-05,0.0,-3e-05,-1e-05,1,32.0
2427,-1e-05,-2e-05,-2e-05,3e-05,-5e-05,0.0,-3e-05,-1e-05,1,32.0
2428,-1e-05,-2e-05,-2e-05,3e-05,-5e-05,0.0,-3e-05,-1e-05,1,32.0
2429,-1e-05,-2e-05,-2e-05,3e-05,-5e-05,0.0,-3e-05,-1e-05,1,32.0
2430,-1e-05,-2e-05,-2e-05,3e-05,-5e-05,0.0,-3e-05,-1e-05,1,32.0
2431,-1e-05,-2e-05,-2e-05,3e-05,-5e-05,0.0,-3e-05,-1e-05,1,32.0
2432,-1e-05,-2e-05,-2e-05,3e-05,-5e-05,0.0,-3e-05,-1e-05,1,32.0
2433,-1e-05,-2e-05,-2e-05,3e-05,-5e-05,0.0,-3e-05,-1e-05,1,32.0
2434,-1e-05,-2e-05,-2e-05,3e-05,-5e-05,0.0,-3e-05,-1e-05,1,32.0
2435,-1e-05,-2e-05,-2e-05,3e-05,-5e-05,0.0,-3e-05,-1e-05,1,32.0
2436,-1e-05,-2e-05,-2e-05,3e-05,-5e-05,0.0,-3e-05,-1e-05,1,32.0
2438,-1e-05,-2e-05,-2e-05,3e-05,-5e-05,0.0,-3e-05,-1e-05,1,32.0
2439,-1e-05,-2e-05,-2e-05,3e-05,-5e-05,0.0,-3e-05,-1e-05,1,32.0
2440,-1e-05,-2e-05,-2e-05,3e-05,-5e-05,0.0,-3e-05,-1e-05,1,32.0
2441,-1e-05,-2e-05,-2e-05,3e-05,-5e-05,0.0,-3e-05,-1e-05,1,32.0
2442,-1e-05,-2e-05,-2e-05,3e-05,-5e-05,0.0,-3e-05,-1e-05,1,32.0
2443,-1e-05,-2e-05,-2e-05,3e-05,-5e-05,0.0,-3e-05,-1e-05,1,32.0
2444,-1e-05,-2e-05,-2e-05,3e-05,-5e-05,0.0,-3e-05,-1e-05,1,32.0
2445,-1e-05,-2e-05,-2e-05,3e-05,-5e-05,0.0,-3e-05,-1e-05,1,32.0
2446,-1e-05,-2e-05,-2e-05,3e-05,-5e-05,0.0,-3e-05,-1e-05,1,32.0
2447,-1e-05,-2e-05,-2e-05,3e-05,-5e-05,0.0,-3e-05,-1e-05,1,32.0
2448,-1e-05,-2e-05,-2e-05,3e-05,-5e-05,0.0,-3e-05,-1e-05,1,32.0
2449,-1e-05,-2e-05,-2e-05,3e-05,-5e-05,0.0,-3e-05,-1e-05,1,32.0
2450,-1e-05,-2e-05,-2e-05,3e-05,-5e-05,0.0,-3e-05,-1e-05,1,32.0
2451,-1e-05,-2e-05,-2e-05,3e-05,-5e-05,0.0,-3e-05,-1e-05,1,32.0
2452,-1e-05,-2e-05,-2e-05,3e-05,-5e-05,0.0,-3e-05,-1e-05,1,32.0
2453,-1e-05,-7e-05,-5e-05,-5e-05,-1e-05,-4e-05,-2e-05,-2e-05,1,32.0
2454,-1e-05,-7e-05,-5e-05,-5e-05,-1e-05,-4e-05,-2e-05,-2e-05,1,32.0
2455,0.0,1e-05,2e-05,2e-05,-3e-05,-0.00011,-3e-05,-2e-05,1,32.0
2456,0.0,1e-05,2e-05,2e-05,-3e-05,-0.00011,-3e-05,-2e-05,1,32.0
2457,0.0,1e-05,2e-05,2e-05,-3e-05,-0.00011,-3e-05,-2e-05,1,32.0
2458,0.0,1e-05,2e-05,2e-05,-3e-05,-0.00011,-3e-05,-2e-05,1,32.0
2459,0.0,1e-05,2e-05,2e-05,-3e-05,-0.00011,-3e-05,-2e-05,1,32.0
2460,0.0,1e-05,2e-05,4e-05,1e-05,0.0,-1e-05,1e-05,1,32.0
2461,0.0,1e-05,2e-05,4e-05,1e-05,0.0,-1e-05,1e-05,1,32.0
2462,0.0,1e-05,2e-05,4e-05,1e-05,0.0,-1e-05,1e-05,1,32.0
2463,0.0,1e-05,2e-05,4e-05,1e-05,0.0,-1e-05,1e-05,1,32.0
2464,0.0,1e-05,2e-05,4e-05,1e-05,0.0,-1e-05,1e-05,1,32.0
2465,0.0,1e-05,2e-05,4e-05,1e-05,0.0,-1e-05,1e-05,1,32.0
2466,0.0,1e-05,2e-05,4e-05,1e-05,0.0,-1e-05,1e-05,1,32.0
2467,0.0,0.0,1e-05,-4e-05,1e-05,-2e-05,-1e-05,0.0,1,32.0
2468,0.0,0.0,1e-05,-4e-05,1e-05,-2e-05,-1e-05,0.0,1,32.0
2469,0.0,0.0,1e-05,-4e-05,1e-05,-2e-05,-1e-05,0.0,1,32.0
2470,0.0,0.0,1e-05,-4e-05,1e-05,-2e-05,-1e-05,0.0,1,32.0
2471,0.0,0.0,1e-05,-4e-05,1e-05,-2e-05,-1e-05,0.0,1,32.0
2472,0.0,0.0,1e-05,-4e-05,1e-05,-2e-05,-1e-05,0.0,1,32.0
2473,0.0,0.0,1e-05,-4e-05,1e-05,-2e-05,-1e-05,0.0,1,32.0
2474,0.0,0.0,1e-05,-4e-05,1e-05,-2e-05,-1e-05,0.0,1,32.0
2475,0.0,0.0,1e-05,-4e-05,1e-05,-2e-05,-1e-05,0.0,1,32.0
2476,0.0,0.0,1e-05,-4e-05,1e-05,-2e-05,-1e-05,0.0,1,32.0
2477,0.0,0.0,1e-05,-4e-05,1e-05,-2e-05,-1e-05,0.0,1,32.0
2478,0.0,0.0,1e-05,-4e-05,1e-05,-2e-05,-1e-05,0.0,1,32.0
2479,0.0,0.0,1e-05,-4e-05,1e-05,-2e-05,-1e-05,0.0,1,32.0
2480,0.0,0.0,1e-05,-4e-05,1e-05,-2e-05,-1e-05,0.0,1,32.0
2481,0.0,0.0,1e-05,-4e-05,1e-05,-2e-05,-1e-05,0.0,1,32.0
2482,0.0,0.0,1e-05,-4e-05,1e-05,-2e-05,-1e-05,0.0,1,32.0
2483,0.0,0.0,-1e-05,0.0,-1e-05,-1e-05,0.0,0.0,1,32.0
2484,0.0,0.0,-1e-05,0.0,-1e-05,-1e-05,0.0,0.0,1,32.0
2485,0.0,0.0,1e-05,-1e-05,-2e-05,-1e-05,-1e-05,-3e-05,1,32.0
2486,0.0,0.0,1e-05,-1e-05,-2e-05,-1e-05,-1e-05,-3e-05,1,32.0
2488,0.0,0.0,1e-05,-1e-05,-2e-05,-1e-05,-1e-05,-3e-05,1,32.0
2489,0.0,0.0,1e-05,-1e-05,-2e-05,-1e-05,-1e-05,-3e-05,1,32.0
2490,0.0,0.0,1e-05,-1e-05,-2e-05,-1e-05,-1e-05,-3e-05,1,32.0
2491,0.0,0.0,1e-05,-1e-05,-2e-05,-1e-05,-1e-05,-3e-05,1,32.0
2492,0.0,0.0,1e-05,-1e-05,-2e-05,-1e-05,-1e-05,-3e-05,1,32.0
2493,0.0,0.0,1e-05,-1e-05,-2e-05,-1e-05,-1e-05,-3e-05,1,32.0
2494,0.0,0.0,1e-05,-1e-05,-2e-05,-1e-05,-1e-05,-3e-05,1,32.0
2495,0.0,0.0,1e-05,-1e-05,-2e-05,-1e-05,-1e-05,-3e-05,1,32.0
2496,0.0,0.0,1e-05,-1e-05,-2e-05,-1e-05,-1e-05,-3e-05,1,32.0
2497,0.0,0.0,1e-05,-1e-05,-2e-05,-1e-05,-1e-05,-3e-05,1,32.0
2498,0.0,0.0,1e-05,-1e-05,-2e-05,-1e-05,-1e-05,-3e-05,1,32.0
2499,0.0,0.0,1e-05,-1e-05,-2e-05,-1e-05,-1e-05,-3e-05,1,32.0
2500,0.0,0.0,1e-05,-1e-05,-2e-05,-1e-05,-1e-05,-3e-05,1,32.0
2501,0.0,0.0,1e-05,-1e-05,-2e-05,-1e-05,-1e-05,-3e-05,1,32.0
2502,0.0,0.0,1e-05,-1e-05,-2e-05,-1e-05,-1e-05,-3e-05,1,32.0
2503,0.0,0.0,1e-05,-1e-05,-2e-05,-1e-05,-1e-05,-3e-05,1,32.0
2504,0.0,0.0,1e-05,-1e-05,-2e-05,-1e-05,-1e-05,-3e-05,1,32.0
2505,0.0,0.0,1e-05,-1e-05,-2e-05,-1e-05,-1e-05,-3e-05,1,32.0
2506,-1e-05,-3e-05,-5e-05,-5e-05,-4e-05,-6e-05,-4e-05,-1e-05,1,32.0
2507,-2e-05,-1e-05,-1e-05,2e-05,1e-05,3e-05,0.0,0.0,1,32.0
2508,-2e-05,-1e-05,-1e-05,2e-05,1e-05,3e-05,0.0,0.0,1,32.0
2509,-2e-05,-1e-05,-1e-05,2e-05,1e-05,3e-05,0.0,0.0,1,32.0
2510,-2e-05,-1e-05,-1e-05,2e-05,1e-05,3e-05,0.0,0.0,1,32.0
2511,-2e-05,-1e-05,-1e-05,2e-05,1e-05,3e-05,0.0,0.0,1,32.0
2512,-2e-05,-1e-05,-1e-05,2e-05,1e-05,3e-05,0.0,0.0,1,32.0
2513,-2e-05,-1e-05,-1e-05,2e-05,1e-05,3e-05,0.0,0.0,1,32.0
2514,-2e-05,-1e-05,-1e-05,2e-05,1e-05,3e-05,0.0,0.0,1,32.0
2515,-2e-05,-1e-05,-1e-05,2e-05,1e-05,3e-05,0.0,0.0,1,32.0
2516,-2e-05,-1e-05,-1e-05,2e-05,1e-05,3e-05,0.0,0.0,1,32.0
2517,-2e-05,-1e-05,-1e-05,2e-05,1e-05,3e-05,0.0,0.0,1,32.0
2518,-2e-05,-1e-05,-1e-05,2e-05,1e-05,3e-05,0.0,0.0,1,32.0
2519,-2e-05,-1e-05,-1e-05,2e-05,1e-05,3e-05,0.0,0.0,1,32.0
2520,-1e-05,-1e-05,-1e-05,-2e-05,-4e-05,1e-05,0.0,-2e-05,1,32.0
2521,-1e-05,-1e-05,-1e-05,-2e-05,-4e-05,1e-05,0.0,-2e-05,1,32.0
2522,-1e-05,-1e-05,-1e-05,-2e-05,-4e-05,1e-05,0.0,-2e-05,1,32.0
2523,-1e-05,-1e-05,-1e-05,-2e-05,-4e-05,1e-05,0.0,-2e-05,1,32.0
2524,-1e-05,-1e-05,-1e-05,-2e-05,-4e-05,1e-05,0.0,-2e-05,1,32.0
2525,-1e-05,-1e-05,-1e-05,-2e-05,-4e-05,1e-05,0.0,-2e-05,1,32.0
2526,-1e-05,-1e-05,-1e-05,-2e-05,-4e-05,1e-05,0.0,-2e-05,1,32.0
2527,-1e-05,1e-05,3e-05,-3e-05,-2e-05,-8e-05,-2e-05,0.0,1,32.0
2528,-1e-05,1e-05,3e-05,-3e-05,-2e-05,-8e-05,-2e-05,0.0,1,32.0
2529,-1e-05,1e-05,3e-05,-3e-05,-2e-05,-8e-05,-2e-05,0.0,1,32.0
2530,-1e-05,1e-05,3e-05,-3e-05,-2e-05,-8e-05,-2e-05,0.0,1,32.0
2531,-1e-05,1e-05,3e-05,-3e-05,-2e-05,-8e-05,-2e-05,0.0,1,32.0
2532,-1e-05,1e-05,3e-05,-3e-05,-2e-05,-8e-05,-2e-05,0.0,1,32.0
2533,-1e-05,1e-05,3e-05,-3e-05,-2e-05,-8e-05,-2e-05,0.0,1,32.0
2534,-1e-05,1e-05,3e-05,-3e-05,-2e-05,-8e-05,-2e-05,0.0,1,32.0
2535,-1e-05,1e-05,3e-05,-3e-05,-2e-05,-8e-05,-2e-05,0.0,1,32.0
2536,-1e-05,1e-05,3e-05,-3e-05,-2e-05,-8e-05,-2e-05,0.0,1,32.0
2538,-1e-05,1e-05,3e-05,-3e-05,-2e-05,-8e-05,-2e-05,0.0,1,32.0
2539,-1e-05,1e-05,3e-05,-3e-05,-2e-05,-8e-05,-2e-05,0.0,1,32.0
2540,-1e-05,1e-05,3e-05,-3e-05,-2e-05,-8e-05,-2e-05,0.0,1,32.0
2541,-1e-05,1e-05,3e-05,-3e-05,-2e-05,-8e-05,-2e-05,0.0,1,32.0
2542,-1e-05,1e-05,3e-05,-3e-05,-2e-05,-8e-05,-2e-05,0.0,1,32.0
2543,-1e-05,1e-05,3e-05,-3e-05,-2e-05,-8e-05,-2e-05,0.0,1,32.0
2544,-1e-05,-1e-05,0.0,2e-05,2e-05,-1e-05,-1e-05,-1e-05,1,32.0
2545,-1e-05,-1e-05,0.0,2e-05,2e-05,-1e-05,-1e-05,-1e-05,1,32.0
2546,0.0,0.0,-1e-05,0.0,-2e-05,-2e-05,-2e-05,-1e-05,1,32.0
2547,0.0,0.0,-1e-05,0.0,-2e-05,-2e-05,-2e-05,-1e-05,1,32.0
2548,0.0,0.0,-1e-05,0.0,-2e-05,-2e-05,-2e-05,-1e-05,1,32.0
2549,0.0,0.0,-1e-05,0.0,-2e-05,-2e-05,-2e-05,-1e-05,1,32.0
2550,0.0,0.0,-1e-05,0.0,-2e-05,-2e-05,-2e-05,-1e-05,1,32.0
2551,0.0,0.0,-1e-05,0.0,-2e-05,-2e-05,-2e-05,-1e-05,1,32.0
2552,0.0,0.0,-1e-05,0.0,-2e-05,-2e-05,-2e-05,-1e-05,1,32.0
2553,0.0,0.0,-1e-05,0.0,-2e-05,-2e-05,-2e-05,-1e-05,1,32.0
2554,0.0,0.0,-1e-05,0.0,-2e-05,-2e-05,-2e-05,-1e-05,1,32.0
2555,0.0,0.0,-1e-05,0.0,-2e-05,-2e-05,-2e-05,-1e-05,1,32.0
2556,0.0,0.0,-1e-05,0.0,-2e-05,-2e-05,-2e-05,-1e-05,1,32.0
2557,0.0,0.0,-1e-05,0.0,-2e-05,-2e-05,-2e-05,-1e-05,1,32.0
2558,0.0,0.0,-1e-05,0.0,-2e-05,-2e-05,-2e-05,-1e-05,1,32.0
2559,0.0,0.0,-1e-05,0.0,-2e-05,-2e-05,-2e-05,-1e-05,1,32.0
2560,0.0,0.0,-1e-05,0.0,-2e-05,-2e-05,-2e-05,-1e-05,1,32.0
2561,0.0,0.0,-1e-05,0.0,-2e-05,-2e-05,-2e-05,-1e-05,1,32.0
2562,0.0,0.0,-1e-05,0.0,-2e-05,-2e-05,-2e-05,-1e-05,1,32.0
2563,0.0,0.0,-1e-05,0.0,-2e-05,-2e-05,-2e-05,-1e-05,1,32.0
2564,0.0,0.0,-1e-05,0.0,-2e-05,-2e-05,-2e-05,-1e-05,1,32.0
2565,0.0,0.0,-1e-05,0.0,-2e-05,-2e-05,-2e-05,-1e-05,1,32.0
2566,0.0,0.0,-1e-05,0.0,-2e-05,-2e-05,-2e-05,-1e-05,1,32.0
2567,0.0,0.0,-1e-05,0.0,-2e-05,-2e-05,-2e-05,-1e-05,1,32.0
2568,0.0,0.0,-1e-05,0.0,-2e-05,-2e-05,-2e-05,-1e-05,1,32.0
2569,0.0,0.0,-1e-05,0.0,-2e-05,-2e-05,-2e-05,-1e-05,1,32.0
2570,0.0,0.0,-1e-05,0.0,-2e-05,-2e-05,-2e-05,-1e-05,1,32.0
2571,0.0,0.0,-1e-05,0.0,-2e-05,-2e-05,-2e-05,-1e-05,1,32.0
2572,0.0,0.0,-1e-05,0.0,-2e-05,-2e-05,-2e-05,-1e-05,1,32.0
2573,-1e-05,-1e-05,-2e-05,-4e-05,0.0,-1e-05,1e-05,0.0,1,32.0
2574,-1e-05,-1e-05,-2e-05,-4e-05,0.0,-1e-05,1e-05,0.0,1,32.0
2575,-1e-05,-4e-05,-6e-05,2e-05,1e-05,1e-05,0.0,-1e-05,1,32.0
2576,-1e-05,-4e-05,-6e-05,2e-05,1e-05,1e-05,0.0,-1e-05,1,32.0
2577,-1e-05,-4e-05,-6e-05,2e-05,1e-05,1e-05,0.0,-1e-05,1,32.0
2578,-1e-05,-4e-05,-6e-05,2e-05,1e-05,1e-05,0.0,-1e-05,1,32.0
2579,-1e-05,-4e-05,-6e-05,2e-05,1e-05,1e-05,0.0,-1e-05,1,32.0
2580,0.0,-1e-05,1e-05,2e-05,-2e-05,-2e-05,-1e-05,0.0,1,32.0
2581,0.0,-1e-05,1e-05,2e-05,-2e-05,-2e-05,-1e-05,0.0,1,32.0
2582,0.0,-1e-05,1e-05,2e-05,-2e-05,-2e-05,-1e-05,0.0,1,32.0
2583,0.0,-1e-05,1e-05,2e-05,-2e-05,-2e-05,-1e-05,0.0,1,32.0
2584,0.0,-1e-05,1e-05,2e-05,-2e-05,-2e-05,-1e-05,0.0,1,32.0
2585,0.0,-1e-05,1e-05,2e-05,-2e-05,-2e-05,-1e-05,0.0,1,32.0
2586,0.0,-1e-05,1e-05,2e-05,-2e-05,-2e-05,-1e-05,0.0,1,32.0
2588,-4e-05,-4e-05,-8e-05,-0.0001,-1e-05,4e-05,1e-05,1e-05,1,32.0
2589,-4e-05,-4e-05,-8e-05,-0.0001,-1e-05,4e-05,1e-05,1e-05,1,32.0
2590,-4e-05,-4e-05,-8e-05,-0.0001,-1e-05,4e-05,1e-05,1e-05,1,32.0
2591,-4e-05,-4e-05,-8e-05,-0.0001,-1e-05,4e-05,1e-05,1e-05,1,32.0
2592,-4e-05,-4e-05,-8e-05,-0.0001,-1e-05,4e-05,1e-05,1e-05,1,32.0
2593,-4e-05,-4e-05,-8e-05,-0.0001,-1e-05,4e-05,1e-05,1e-05,1,32.0
2594,-4e-05,-4e-05,-8e-05,-0.0001,-1e-05,4e-05,1e-05,1e-05,1,32.0
2595,-4e-05,-4e-05,-8e-05,-0.0001,-1e-05,4e-05,1e-05,1e-05,1,32.0
2596,-4e-05,-4e-05,-8e-05,-0.0001,-1e-05,4e-05,1e-05,1e-05,1,32.0
2597,-4e-05,-4e-05,-8e-05,-0.0001,-1e-05,4e-05,1e-05,1e-05,1,32.0
2598,-4e-05,-4e-05,-8e-05,-0.0001,-1e-05,4e-05,1e-05,1e-05,1,32.0
2599,-4e-05,-4e-05,-8e-05,-0.0001,-1e-05,4e-05,1e-05,1e-05,1,32.0
2600,-4e-05,-4e-05,-8e-05,-0.0001,-1e-05,4e-05,1e-05,1e-05,1,32.0
2601,-4e-05,-4e-05,-8e-05,-0.0001,-1e-05,4e-05,1e-05,1e-05,1,32.0
2602,0.0,2e-05,1e-05,0.0,1e-05,2e-05,0.0,0.0,1,32.0
2603,0.0,2e-05,1e-05,0.0,1e-05,2e-05,0.0,0.0,1,32.0
2604,0.0,2e-05,1e-05,0.0,1e-05,2e-05,0.0,0.0,1,32.0
2605,0.0,2e-05,1e-05,0.0,1e-05,2e-05,0.0,0.0,1,32.0
2606,0.0,2e-05,1e-05,0.0,1e-05,2e-05,0.0,0.0,1,32.0
2607,0.0,2e-05,1e-05,0.0,1e-05,2e-05,0.0,0.0,1,32.0
2608,0.0,2e-05,1e-05,0.0,1e-05,2e-05,0.0,0.0,1,32.0
2609,0.0,2e-05,1e-05,0.0,1e-05,2e-05,0.0,0.0,1,32.0
2610,0.0,2e-05,1e-05,0.0,1e-05,2e-05,0.0,0.0,1,32.0
2611,0.0,1e-05,4e-05,7e-05,1e-05,-9e-05,-2e-05,-1e-05,1,32.0
2612,0.0,1e-05,4e-05,7e-05,1e-05,-9e-05,-2e-05,-1e-05,1,32.0
2613,0.0,1e-05,4e-05,7e-05,1e-05,-9e-05,-2e-05,-1e-05,1,32.0
2614,0.0,1e-05,4e-05,7e-05,1e-05,-9e-05,-2e-05,-1e-05,1,32.0
2615,0.0,1e-05,4e-05,7e-05,1e-05,-9e-05,-2e-05,-1e-05,1,32.0
2616,0.0,1e-05,4e-05,7e-05,1e-05,-9e-05,-2e-05,-1e-05,1,32.0
2617,0.0,1e-05,4e-05,7e-05,1e-05,-9e-05,-2e-05,-1e-05,1,32.0
2618,0.0,1e-05,4e-05,7e-05,1e-05,-9e-05,-2e-05,-1e-05,1,32.0
2619,0.0,1e-05,4e-05,7e-05,1e-05,-9e-05,-2e-05,-1e-05,1,32.0
2620,0.0,1e-05,4e-05,7e-05,1e-05,-9e-05,-2e-05,-1e-05,1,32.0
2621,0.0,1e-05,4e-05,7e-05,1e-05,-9e-05,-2e-05,-1e-05,1,32.0
2622,0.0,1e-05,4e-05,7e-05,1e-05,-9e-05,-2e-05,-1e-05,1,32.0
2623,0.0,1e-05,4e-05,7e-05,1e-05,-9e-05,-2e-05,-1e-05,1,32.0
2624,0.0,1e-05,4e-05,7e-05,1e-05,-9e-05,-2e-05,-1e-05,1,32.0
2625,0.0,1e-05,4e-05,7e-05,1e-05,-9e-05,-2e-05,-1e-05,1,32.0
2626,-2e-05,2e-05,-1e-05,0.0,-3e-05,-2e-05,-2e-05,-2e-05,1,32.0
2627,0.0,-1e-05,-1e-05,-3e-05,-5e-05,-5e-05,-2e-05,1e-05,1,32.0
2628,0.0,-1e-05,-1e-05,-3e-05,-5e-05,-5e-05,-2e-05,1e-05,1,32.0
2629,0.0,-1e-05,-1e-05,-3e-05,-5e-05,-5e-05,-2e-05,1e-05,1,32.0
2630,0.0,-1e-05,-1e-05,-3e-05,-5e-05,-5e-05,-2e-05,1e-05,1,32.0
2631,0.0,-1e-05,-1e-05,-3e-05,-5e-05,-5e-05,-2e-05,1e-05,1,32.0
2632,0.0,-1e-05,-1e-05,-3e-05,-5e-05,-5e-05,-2e-05,1e-05,1,32.0
2633,0.0,-1e-05,-1e-05,-3e-05,-5e-05,-5e-05,-2e-05,1e-05,1,32.0
2634,0.0,-1e-05,-1e-05,-3e-05,-5e-05,-5e-05,-2e-05,1e-05,1,32.0
2635,0.0,-1e-05,-1e-05,-3e-05,-5e-05,-5e-05,-2e-05,1e-05,1,32.0
2636,0.0,-1e-05,-1e-05,-3e-05,-5e-05,-5e-05,-2e-05,1e-05,1,32.0
2638,0.0,-1e-05,-1e-05,-3e-05,-5e-05,-5e-05,-2e-05,1e-05,1,32.0
2639,0.0,-1e-05,-1e-05,-3e-05,-5e-05,-5e-05,-2e-05,1e-05,1,32.0
2640,-4e-05,-2e-05,1e-05,-2e-05,-3e-05,-2e-05,-2e-05,0.0,1,32.0
2641,-4e-05,-2e-05,1e-05,-2e-05,-3e-05,-2e-05,-2e-05,0.0,1,32.0
2642,-4e-05,-2e-05,1e-05,-2e-05,-3e-05,-2e-05,-2e-05,0.0,1,32.0
2643,-4e-05,-2e-05,1e-05,-2e-05,-3e-05,-2e-05,-2e-05,0.0,1,32.0
2644,-4e-05,-2e-05,1e-05,-2e-05,-3e-05,-2e-05,-2e-05,0.0,1,32.0
2645,-4e-05,-2e-05,1e-05,-2e-05,-3e-05,-2e-05,-2e-05,0.0,1,32.0
2646,-4e-05,-2e-05,1e-05,-2e-05,-3e-05,-2e-05,-2e-05,0.0,1,32.0
2647,-4e-05,-2e-05,1e-05,-2e-05,-3e-05,-2e-05,-2e-05,0.0,1,32.0
2648,-4e-05,-2e-05,1e-05,-2e-05,-3e-05,-2e-05,-2e-05,0.0,1,32.0
2649,2e-05,-1e-05,-1e-05,-6e-05,-2e-05,-1e-05,-1e-05,-1e-05,1,32.0
2650,2e-05,-1e-05,-1e-05,-6e-05,-2e-05,-1e-05,-1e-05,-1e-05,1,32.0
2651,2e-05,-1e-05,-1e-05,-6e-05,-2e-05,-1e-05,-1e-05,-1e-05,1,32.0
2652,2e-05,-1e-05,-1e-05,-6e-05,-2e-05,-1e-05,-1e-05,-1e-05,1,32.0
2653,2e-05,-1e-05,-1e-05,-6e-05,-2e-05,-1e-05,-1e-05,-1e-05,1,32.0
2654,2e-05,-1e-05,-1e-05,-6e-05,-2e-05,-1e-05,-1e-05,-1e-05,1,32.0
2655,2e-05,-1e-05,-1e-05,-6e-05,-2e-05,-1e-05,-1e-05,-1e-05,1,32.0
2656,2e-05,-1e-05,-1e-05,-6e-05,-2e-05,-1e-05,-1e-05,-1e-05,1,32.0
2657,2e-05,-1e-05,-1e-05,-6e-05,-2e-05,-1e-05,-1e-05,-1e-05,1,32.0
2658,2e-05,-1e-05,-1e-05,-6e-05,-2e-05,-1e-05,-1e-05,-1e-05,1,32.0
2659,2e-05,-1e-05,-1e-05,-6e-05,-2e-05,-1e-05,-1e-05,-1e-05,1,32.0
2660,2e-05,-1e-05,-1e-05,-6e-05,-2e-05,-1e-05,-1e-05,-1e-05,1,32.0
2661,2e-05,-1e-05,-1e-05,-6e-05,-2e-05,-1e-05,-1e-05,-1e-05,1,32.0
2662,2e-05,-1e-05,-1e-05,-6e-05,-2e-05,-1e-05,-1e-05,-1e-05,1,32.0
2663,2e-05,-1e-05,-1e-05,-6e-05,-2e-05,-1e-05,-1e-05,-1e-05,1,32.0
2664,-3e-05,-5e-05,-0.0001,0.0,-2e-05,2e-05,-1e-05,-1e-05,1,32.0
2665,0.0,1e-05,3e-05,1e-05,1e-05,6e-05,0.0,-1e-05,1,32.0
2666,0.0,1e-05,3e-05,1e-05,1e-05,6e-05,0.0,-1e-05,1,32.0
2667,0.0,1e-05,3e-05,1e-05,1e-05,6e-05,0.0,-1e-05,1,32.0
2668,0.0,1e-05,3e-05,1e-05,1e-05,6e-05,0.0,-1e-05,1,32.0
2669,0.0,1e-05,3e-05,1e-05,1e-05,6e-05,0.0,-1e-05,1,32.0
2670,0.0,1e-05,3e-05,1e-05,1e-05,6e-05,0.0,-1e-05,1,32.0
2671,0.0,1e-05,3e-05,1e-05,1e-05,6e-05,0.0,-1e-05,1,32.0
2672,0.0,1e-05,3e-05,1e-05,1e-05,6e-05,0.0,-1e-05,1,32.0
2673,0.0,1e-05,3e-05,1e-05,1e-05,6e-05,0.0,-1e-05,1,32.0
2674,0.0,1e-05,3e-05,1e-05,1e-05,6e-05,0.0,-1e-05,1,32.0
2675,0.0,1e-05,3e-05,1e-05,1e-05,6e-05,0.0,-1e-05,1,32.0
2676,0.0,1e-05,3e-05,1e-05,1e-05,6e-05,0.0,-1e-05,1,32.0
2677,0.0,1e-05,3e-05,1e-05,1e-05,6e-05,0.0,-1e-05,1,32.0
2678,0.0,1e-05,3e-05,1e-05,1e-05,6e-05,0.0,-1e-05,1,32.0
2679,0.0,1e-05,3e-05,1e-05,1e-05,6e-05,0.0,-1e-05,1,32.0
2680,0.0,1e-05,3e-05,1e-05,1e-05,6e-05,0.0,-1e-05,1,32.0
2681,0.0,1e-05,3e-05,1e-05,1e-05,6e-05,0.0,-1e-05,1,32.0
2682,0.0,1e-05,3e-05,1e-05,1e-05,6e-05,0.0,-1e-05,1,32.0
2683,0.0,1e-05,3e-05,1e-05,1e-05,6e-05,0.0,-1e-05,1,32.0
2684,0.0,1e-05,3e-05,1e-05,1e-05,6e-05,0.0,-1e-05,1,32.0
2685,0.0,1e-05,3e-05,1e-05,1e-05,6e-05,0.0,-1e-05,1,32.0
2686,1e-05,0.0,-1e-05,-3e-05,-2e-05,-2e-05,-2e-05,0.0,1,32.0
2688,-1e-05,-1e-05,-2e-05,4e-05,1e-05,-3e-05,-2e-05,-2e-05,1,32.0
2689,-1e-05,-1e-05,-2e-05,4e-05,1e-05,-3e-05,-2e-05,-2e-05,1,32.0
2690,-1e-05,-1e-05,-2e-05,4e-05,1e-05,-3e-05,-2e-05,-2e-05,1,32.0
2691,-1e-05,-1e-05,-2e-05,4e-05,1e-05,-3e-05,-2e-05,-2e-05,1,32.0
2692,-1e-05,-1e-05,-2e-05,4e-05,1e-05,-3e-05,-2e-05,-2e-05,1,32.0
2693,-1e-05,-1e-05,-2e-05,4e-05,1e-05,-3e-05,-2e-05,-2e-05,1,32.0
2694,-1e-05,-1e-05,-2e-05,4e-05,1e-05,-3e-05,-2e-05,-2e-05,1,32.0
2695,-1e-05,-1e-05,-2e-05,4e-05,1e-05,-3e-05,-2e-05,-2e-05,1,32.0
2696,-1e-05,-1e-05,-2e-05,4e-05,1e-05,-3e-05,-2e-05,-2e-05,1,32.0
2697,-1e-05,-1e-05,-2e-05,4e-05,1e-05,-3e-05,-2e-05,-2e-05,1,32.0
2698,-1e-05,-1e-05,-2e-05,4e-05,1e-05,-3e-05,-2e-05,-2e-05,1,32.0
2699,-1e-05,-1e-05,-2e-05,4e-05,1e-05,-3e-05,-2e-05,-2e-05,1,32.0
2700,-1e-05,-1e-05,0.0,5e-05,7e-05,5e-05,-1e-05,-2e-05,1,32.0
2701,-1e-05,-1e-05,0.0,5e-05,7e-05,5e-05,-1e-05,-2e-05,1,32.0
2702,-1e-05,-1e-05,0.0,5e-05,7e-05,5e-05,-1e-05,-2e-05,1,32.0
2703,-1e-05,-1e-05,0.0,5e-05,7e-05,5e-05,-1e-05,-2e-05,1,32.0
2704,-1e-05,-1e-05,0.0,5e-05,7e-05,5e-05,-1e-05,-2e-05,1,32.0
2705,-1e-05,-1e-05,0.0,5e-05,7e-05,5e-05,-1e-05,-2e-05,1,32.0
2706,-1e-05,-1e-05,0.0,5e-05,7e-05,5e-05,-1e-05,-2e-05,1,32.0
2707,0.0,1e-05,-1e-05,-3e-05,-2e-05,1e-05,0.0,-1e-05,1,32.0
2708,0.0,1e-05,-1e-05,-3e-05,-2e-05,1e-05,0.0,-1e-05,1,32.0
2709,0.0,1e-05,-1e-05,-3e-05,-2e-05,1e-05,0.0,-1e-05,1,32.0
2710,0.0,1e-05,-1e-05,-3e-05,-2e-05,1e-05,0.0,-1e-05,1,32.0
2711,0.0,1e-05,-1e-05,-3e-05,-2e-05,1e-05,0.0,-1e-05,1,32.0
2712,0.0,1e-05,-1e-05,-3e-05,-2e-05,1e-05,0.0,-1e-05,1,32.0
2713,0.0,1e-05,-1e-05,-3e-05,-2e-05,1e-05,0.0,-1e-05,1,32.0
2714,0.0,1e-05,-1e-05,-3e-05,-2e-05,1e-05,0.0,-1e-05,1,32.0
2715,0.0,1e-05,-1e-05,-3e-05,-2e-05,1e-05,0.0,-1e-05,1,32.0
2716,0.0,1e-05,-1e-05,-3e-05,-2e-05,1e-05,0.0,-1e-05,1,32.0
2717,0.0,1e-05,-1e-05,-3e-05,-2e-05,1e-05,0.0,-1e-05,1,32.0
2718,0.0,1e-05,-1e-05,-3e-05,-2e-05,1e-05,0.0,-1e-05,1,32.0
2719,0.0,1e-05,-1e-05,-3e-05,-2e-05,1e-05,0.0,-1e-05,1,32.0
2720,0.0,1e-05,-1e-05,-3e-05,-2e-05,1e-05,0.0,-1e-05,1,32.0
2721,0.0,1e-05,-1e-05,-3e-05,-2e-05,1e-05,0.0,-1e-05,1,32.0
2722,0.0,1e-05,-1e-05,-3e-05,-2e-05,1e-05,0.0,-1e-05,1,32.0
2723,-1e-05,-1e-05,-4e-05,-8e-05,-5e-05,-3e-05,-1e-05,-1e-05,1,32.0
2724,-1e-05,-1e-05,-4e-05,-8e-05,-5e-05,-3e-05,-1e-05,-1e-05,1,32.0
2725,-1e-05,-3e-05,1e-05,4e-05,1e-05,6e-05,1e-05,-1e-05,1,32.0
2726,-1e-05,-3e-05,1e-05,4e-05,1e-05,6e-05,1e-05,-1e-05,1,32.0
2727,-1e-05,-3e-05,1e-05,4e-05,1e-05,6e-05,1e-05,-1e-05,1,32.0
2728,-1e-05,-3e-05,1e-05,4e-05,1e-05,6e-05,1e-05,-1e-05,1,32.0
2729,-1e-05,-3e-05,1e-05,4e-05,1e-05,6e-05,1e-05,-1e-05,1,32.0
2730,-1e-05,-3e-05,1e-05,4e-05,1e-05,6e-05,1e-05,-1e-05,1,32.0
2731,-1e-05,-3e-05,1e-05,4e-05,1e-05,6e-05,1e-05,-1e-05,1,32.0
2732,-1e-05,-3e-05,1e-05,4e-05,1e-05,6e-05,1e-05,-1e-05,1,32.0
2733,-1e-05,-3e-05,1e-05,4e-05,1e-05,6e-05,1e-05,-1e-05,1,32.0
2734,-1e-05,-3e-05,1e-05,4e-05,1e-05,6e-05,1e-05,-1e-05,1,32.0
2735,-1e-05,-3e-05,1e-05,4e-05,1e-05,6e-05,1e-05,-1e-05,1,32.0
2736,-1e-05,-3e-05,1e-05,4e-05,1e-05,6e-05,1e-05,-1e-05,1,32.0
2738,-1e-05,-3e-05,1e-05,4e-05,1e-05,6e-05,1e-05,-1e-05,1,32.0
2739,-1e-05,-3e-05,1e-05,4e-05,1e-05,6e-05,1e-05,-1e-05,1,32.0
2740,-1e-05,-3e-05,1e-05,4e-05,1e-05,6e-05,1e-05,-1e-05,1,32.0
2741,-1e-05,-3e-05,1e-05,4e-05,1e-05,6e-05,1e-05,-1e-05,1,32.0
2742,-1e-05,-3e-05,1e-05,4e-05,1e-05,6e-05,1e-05,-1e-05,1,32.0
2743,-1e-05,-3e-05,1e-05,4e-05,1e-05,6e-05,1e-05,-1e-05,1,32.0
2744,-1e-05,-3e-05,1e-05,4e-05,1e-05,6e-05,1e-05,-1e-05,1,32.0
2745,-1e-05,-3e-05,1e-05,4e-05,1e-05,6e-05,1e-05,-1e-05,1,32.0
2746,-1e-05,-1e-05,-1e-05,-4e-05,-1e-05,1e-05,1e-05,-1e-05,1,32.0
2747,-3e-05,0.0,-3e-05,1e-05,-1e-05,0.0,-1e-05,-1e-05,1,32.0
2748,-3e-05,0.0,-3e-05,1e-05,-1e-05,0.0,-1e-05,-1e-05,1,32.0
2749,-3e-05,0.0,-3e-05,1e-05,-1e-05,0.0,-1e-05,-1e-05,1,32.0
2750,-3e-05,0.0,-3e-05,1e-05,-1e-05,0.0,-1e-05,-1e-05,1,32.0
2751,-3e-05,0.0,-3e-05,1e-05,-1e-05,0.0,-1e-05,-1e-05,1,32.0
2752,-3e-05,0.0,-3e-05,1e-05,-1e-05,0.0,-1e-05,-1e-05,1,32.0
2753,-3e-05,0.0,-3e-05,1e-05,-1e-05,0.0,-1e-05,-1e-05,1,32.0
2754,-3e-05,0.0,-3e-05,1e-05,-1e-05,0.0,-1e-05,-1e-05,1,32.0
2755,-3e-05,0.0,-3e-05,1e-05,-1e-05,0.0,-1e-05,-1e-05,1,32.0
2756,-3e-05,0.0,-3e-05,1e-05,-1e-05,0.0,-1e-05,-1e-05,1,32.0
2757,-3e-05,0.0,-3e-05,1e-05,-1e-05,0.0,-1e-05,-1e-05,1,32.0
2758,-3e-05,0.0,-3e-05,1e-05,-1e-05,0.0,-1e-05,-1e-05,1,32.0
2759,0.0,0.0,2e-05,1e-05,0.0,-2e-05,0.0,2e-05,1,32.0
2760,0.0,0.0,2e-05,1e-05,0.0,-2e-05,0.0,2e-05,1,32.0
2761,0.0,0.0,2e-05,1e-05,0.0,-2e-05,0.0,2e-05,1,32.0
2762,0.0,0.0,2e-05,1e-05,0.0,-2e-05,0.0,2e-05,1,32.0
2763,0.0,0.0,2e-05,1e-05,0.0,-2e-05,0.0,2e-05,1,32.0
2764,0.0,0.0,2e-05,1e-05,0.0,-2e-05,0.0,2e-05,1,32.0
2765,0.0,0.0,2e-05,1e-05,0.0,-2e-05,0.0,2e-05,1,32.0
2766,0.0,0.0,2e-05,1e-05,0.0,-2e-05,0.0,2e-05,1,32.0
2767,0.0,0.0,2e-05,1e-05,0.0,-2e-05,0.0,2e-05,1,32.0
2768,0.0,-3e-05,-5e-05,-0.00019,-2e-05,-8e-05,-3e-05,-1e-05,1,32.0
2770,0.0,-3e-05,-5e-05,-0.00019,-2e-05,-8e-05,-3e-05,-1e-05,1,32.0
2771,0.0,-3e-05,-5e-05,-0.00019,-2e-05,-8e-05,-3e-05,-1e-05,1,32.0
2772,0.0,-3e-05,-5e-05,-0.00019,-2e-05,-8e-05,-3e-05,-1e-05,1,32.0
2773,0.0,-3e-05,-5e-05,-0.00019,-2e-05,-8e-05,-3e-05,-1e-05,1,32.0
2774,0.0,-3e-05,-5e-05,-0.00019,-2e-05,-8e-05,-3e-05,-1e-05,1,32.0
2775,0.0,-3e-05,-5e-05,-0.00019,-2e-05,-8e-05,-3e-05,-1e-05,1,32.0
2776,0.0,-3e-05,-5e-05,-0.00019,-2e-05,-8e-05,-3e-05,-1e-05,1,32.0
2777,0.0,-3e-05,-5e-05,-0.00019,-2e-05,-8e-05,-3e-05,-1e-05,1,32.0
2778,0.0,-3e-05,-5e-05,-0.00019,-2e-05,-8e-05,-3e-05,-1e-05,1,32.0
2779,0.0,-3e-05,-5e-05,-0.00019,-2e-05,-8e-05,-3e-05,-1e-05,1,32.0
2780,0.0,-3e-05,-5e-05,-0.00019,-2e-05,-8e-05,-3e-05,-1e-05,1,32.0
2781,0.0,-3e-05,-5e-05,-0.00019,-2e-05,-8e-05,-3e-05,-1e-05,1,32.0
2782,0.0,-3e-05,-5e-05,-0.00019,-2e-05,-8e-05,-3e-05,-1e-05,1,32.0
2783,-1e-05,-2e-05,-1e-05,0.00011,6e-05,-2e-05,-3e-05,-1e-05,1,32.0
2784,-1e-05,-2e-05,-1e-05,0.00011,6e-05,-2e-05,-3e-05,-1e-05,1,32.0
2785,-1e-05,-2e-05,-4e-05,2e-05,-3e-05,-2e-05,-3e-05,1e-05,1,32.0
2786,-1e-05,-2e-05,-4e-05,2e-05,-3e-05,-2e-05,-3e-05,1e-05,1,32.0
2788,-1e-05,-2e-05,-4e-05,2e-05,-3e-05,-2e-05,-3e-05,1e-05,1,32.0
2789,-1e-05,-2e-05,-4e-05,2e-05,-3e-05,-2e-05,-3e-05,1e-05,1,32.0
2790,-1e-05,-2e-05,-4e-05,2e-05,-3e-05,-2e-05,-3e-05,1e-05,1,32.0
2791,-1e-05,-2e-05,-4e-05,2e-05,-3e-05,-2e-05,-3e-05,1e-05,1,32.0
2792,-1e-05,-2e-05,-4e-05,2e-05,-3e-05,-2e-05,-3e-05,1e-05,1,32.0
2793,-1e-05,-2e-05,-4e-05,2e-05,-3e-05,-2e-05,-3e-05,1e-05,1,32.0
2794,-1e-05,-2e-05,-4e-05,2e-05,-3e-05,-2e-05,-3e-05,1e-05,1,32.0
2795,-1e-05,-2e-05,-4e-05,2e-05,-3e-05,-2e-05,-3e-05,1e-05,1,32.0
2796,-1e-05,-2e-05,-4e-05,2e-05,-3e-05,-2e-05,-3e-05,1e-05,1,32.0
2797,-1e-05,-2e-05,-4e-05,2e-05,-3e-05,-2e-05,-3e-05,1e-05,1,32.0
2798,-1e-05,-2e-05,-4e-05,2e-05,-3e-05,-2e-05,-3e-05,1e-05,1,32.0
2799,-1e-05,-2e-05,-4e-05,2e-05,-3e-05,-2e-05,-3e-05,1e-05,1,32.0
2800,-1e-05,-2e-05,-4e-05,2e-05,-3e-05,-2e-05,-3e-05,1e-05,1,32.0
2801,-1e-05,-2e-05,-4e-05,2e-05,-3e-05,-2e-05,-3e-05,1e-05,1,32.0
2802,-1e-05,-2e-05,-4e-05,2e-05,-3e-05,-2e-05,-3e-05,1e-05,1,32.0
2803,-1e-05,-2e-05,-4e-05,2e-05,-3e-05,-2e-05,-3e-05,1e-05,1,32.0
2804,-1e-05,-2e-05,-4e-05,2e-05,-3e-05,-2e-05,-3e-05,1e-05,1,32.0
2805,-1e-05,-2e-05,-4e-05,2e-05,-3e-05,-2e-05,-3e-05,1e-05,1,32.0
2806,-1e-05,-1e-05,-3e-05,-8e-05,-4e-05,-1e-05,-1e-05,-1e-05,1,32.0
2807,-3e-05,-1e-05,0.0,-2e-05,-1e-05,-1e-05,0.0,-2e-05,1,32.0
2808,-3e-05,-1e-05,0.0,-2e-05,-1e-05,-1e-05,0.0,-2e-05,1,32.0
2809,-3e-05,-1e-05,0.0,-2e-05,-1e-05,-1e-05,0.0,-2e-05,1,32.0
2810,-3e-05,-1e-05,0.0,-2e-05,-1e-05,-1e-05,0.0,-2e-05,1,32.0
2811,-3e-05,-1e-05,0.0,-2e-05,-1e-05,-1e-05,0.0,-2e-05,1,32.0
2812,-3e-05,-1e-05,0.0,-2e-05,-1e-05,-1e-05,0.0,-2e-05,1,32.0
2813,-3e-05,-1e-05,0.0,-2e-05,-1e-05,-1e-05,0.0,-2e-05,1,32.0
2814,-3e-05,-1e-05,0.0,-2e-05,-1e-05,-1e-05,0.0,-2e-05,1,32.0
2815,-3e-05,-1e-05,0.0,-2e-05,-1e-05,-1e-05,0.0,-2e-05,1,32.0
2816,-3e-05,-1e-05,0.0,-2e-05,-1e-05,-1e-05,0.0,-2e-05,1,32.0
2817,-3e-05,-1e-05,0.0,-2e-05,-1e-05,-1e-05,0.0,-2e-05,1,32.0
2818,-3e-05,-1e-05,0.0,-2e-05,-1e-05,-1e-05,0.0,-2e-05,1,32.0
2819,-2e-05,-1e-05,2e-05,3e-05,3e-05,1e-05,0.0,-1e-05,1,32.0
2820,-2e-05,-1e-05,2e-05,3e-05,3e-05,1e-05,0.0,-1e-05,1,32.0
2821,-2e-05,-1e-05,2e-05,3e-05,3e-05,1e-05,0.0,-1e-05,1,32.0
2822,-2e-05,-1e-05,2e-05,3e-05,3e-05,1e-05,0.0,-1e-05,1,32.0
2823,-2e-05,-1e-05,2e-05,3e-05,3e-05,1e-05,0.0,-1e-05,1,32.0
2824,-2e-05,-1e-05,2e-05,3e-05,3e-05,1e-05,0.0,-1e-05,1,32.0
2825,-2e-05,-1e-05,2e-05,3e-05,3e-05,1e-05,0.0,-1e-05,1,32.0
2826,-2e-05,-1e-05,2e-05,3e-05,3e-05,1e-05,0.0,-1e-05,1,32.0
2827,-2e-05,-1e-05,2e-05,3e-05,3e-05,1e-05,0.0,-1e-05,1,32.0
2828,0.0,-1e-05,0.0,-1e-05,1e-05,4e-05,3e-05,-1e-05,1,32.0
2829,0.0,-1e-05,0.0,-1e-05,1e-05,4e-05,3e-05,-1e-05,1,32.0
2830,0.0,-1e-05,0.0,-1e-05,1e-05,4e-05,3e-05,-1e-05,1,32.0
2831,0.0,-1e-05,0.0,-1e-05,1e-05,4e-05,3e-05,-1e-05,1,32.0
2832,0.0,-1e-05,0.0,-1e-05,1e-05,4e-05,3e-05,-1e-05,1,32.0
2833,0.0,-1e-05,0.0,-1e-05,1e-05,4e-05,3e-05,-1e-05,1,32.0
2834,0.0,-1e-05,0.0,-1e-05,1e-05,4e-05,3e-05,-1e-05,1,32.0
2835,0.0,-1e-05,0.0,-1e-05,1e-05,4e-05,3e-05,-1e-05,1,32.0
2836,0.0,-1e-05,0.0,-1e-05,1e-05,4e-05,3e-05,-1e-05,1,32.0
2838,0.0,-1e-05,0.0,-1e-05,1e-05,4e-05,3e-05,-1e-05,1,32.0
2839,0.0,-1e-05,0.0,-1e-05,1e-05,4e-05,3e-05,-1e-05,1,32.0
2840,0.0,-1e-05,0.0,-1e-05,1e-05,4e-05,3e-05,-1e-05,1,32.0
2841,0.0,-1e-05,0.0,-1e-05,1e-05,4e-05,3e-05,-1e-05,1,32.0
2842,0.0,-1e-05,0.0,-1e-05,1e-05,4e-05,3e-05,-1e-05,1,32.0
2843,-1e-05,-1e-05,-2e-05,-3e-05,-1e-05,3e-05,-1e-05,-2e-05,1,32.0
2844,-1e-05,-1e-05,-2e-05,-3e-05,-1e-05,3e-05,-1e-05,-2e-05,1,32.0
2845,-2e-05,1e-05,2e-05,5e-05,0.0,2e-05,-1e-05,0.0,1,32.0
2846,-2e-05,1e-05,2e-05,5e-05,0.0,2e-05,-1e-05,0.0,1,32.0
2847,-2e-05,1e-05,2e-05,5e-05,0.0,2e-05,-1e-05,0.0,1,32.0
2848,-2e-05,1e-05,2e-05,5e-05,0.0,2e-05,-1e-05,0.0,1,32.0
2849,-2e-05,1e-05,2e-05,5e-05,0.0,2e-05,-1e-05,0.0,1,32.0
2850,-2e-05,1e-05,2e-05,5e-05,0.0,2e-05,-1e-05,0.0,1,32.0
2851,-2e-05,1e-05,2e-05,5e-05,0.0,2e-05,-1e-05,0.0,1,32.0
2852,-2e-05,1e-05,2e-05,5e-05,0.0,2e-05,-1e-05,0.0,1,32.0
2853,-2e-05,1e-05,2e-05,5e-05,0.0,2e-05,-1e-05,0.0,1,32.0
2854,-2e-05,1e-05,2e-05,5e-05,0.0,2e-05,-1e-05,0.0,1,32.0
2855,-2e-05,1e-05,2e-05,5e-05,0.0,2e-05,-1e-05,0.0,1,32.0
2856,-2e-05,1e-05,2e-05,5e-05,0.0,2e-05,-1e-05,0.0,1,32.0
2857,-2e-05,1e-05,2e-05,5e-05,0.0,2e-05,-1e-05,0.0,1,32.0
2858,-2e-05,1e-05,2e-05,5e-05,0.0,2e-05,-1e-05,0.0,1,32.0
2859,-2e-05,1e-05,2e-05,5e-05,0.0,2e-05,-1e-05,0.0,1,32.0
2860,-2e-05,1e-05,2e-05,5e-05,0.0,2e-05,-1e-05,0.0,1,32.0
2861,-2e-05,1e-05,2e-05,5e-05,0.0,2e-05,-1e-05,0.0,1,32.0
2862,-2e-05,1e-05,2e-05,5e-05,0.0,2e-05,-1e-05,0.0,1,32.0
2863,-2e-05,1e-05,2e-05,5e-05,0.0,2e-05,-1e-05,0.0,1,32.0
2864,-2e-05,1e-05,2e-05,5e-05,0.0,2e-05,-1e-05,0.0,1,32.0
2865,-2e-05,1e-05,2e-05,5e-05,0.0,2e-05,-1e-05,0.0,1,32.0
2866,2e-05,0.0,-1e-05,-7e-05,-4e-05,-4e-05,-1e-05,-2e-05,1,32.0
2867,1e-05,0.0,0.0,3e-05,0.0,0.0,-1e-05,-2e-05,1,32.0
2868,1e-05,0.0,0.0,3e-05,0.0,0.0,-1e-05,-2e-05,1,32.0
2869,1e-05,0.0,0.0,3e-05,0.0,0.0,-1e-05,-2e-05,1,32.0
2870,1e-05,0.0,0.0,3e-05,0.0,0.0,-1e-05,-2e-05,1,32.0
2871,1e-05,0.0,0.0,3e-05,0.0,0.0,-1e-05,-2e-05,1,32.0
2872,1e-05,0.0,0.0,3e-05,0.0,0.0,-1e-05,-2e-05,1,32.0
2873,1e-05,0.0,0.0,3e-05,0.0,0.0,-1e-05,-2e-05,1,32.0
2874,1e-05,0.0,0.0,3e-05,0.0,0.0,-1e-05,-2e-05,1,32.0
2875,1e-05,0.0,0.0,3e-05,0.0,0.0,-1e-05,-2e-05,1,32.0
2876,1e-05,0.0,0.0,3e-05,0.0,0.0,-1e-05,-2e-05,1,32.0
2877,1e-05,0.0,0.0,3e-05,0.0,0.0,-1e-05,-2e-05,1,32.0
2878,1e-05,0.0,0.0,3e-05,0.0,0.0,-1e-05,-2e-05,1,32.0
2879,-2e-05,0.0,0.0,-4e-05,-7e-05,-5e-05,-1e-05,-2e-05,1,32.0
2881,-2e-05,0.0,0.0,-4e-05,-7e-05,-5e-05,-1e-05,-2e-05,1,32.0
2882,-2e-05,0.0,0.0,-4e-05,-7e-05,-5e-05,-1e-05,-2e-05,1,32.0
2883,-2e-05,0.0,0.0,-4e-05,-7e-05,-5e-05,-1e-05,-2e-05,1,32.0
2884,-2e-05,0.0,0.0,-4e-05,-7e-05,-5e-05,-1e-05,-2e-05,1,32.0
2885,-2e-05,0.0,0.0,-4e-05,-7e-05,-5e-05,-1e-05,-2e-05,1,32.0
2886,-2e-05,0.0,0.0,-4e-05,-7e-05,-5e-05,-1e-05,-2e-05,1,32.0
2890,-3e-05,-2e-05,0.0,-0.0001,-4e-05,-4e-05,-2e-05,-2e-05,1,32.0
2891,-3e-05,-2e-05,0.0,-0.0001,-4e-05,-4e-05,-2e-05,-2e-05,1,32.0
2892,-3e-05,-2e-05,0.0,-0.0001,-4e-05,-4e-05,-2e-05,-2e-05,1,32.0
2893,-3e-05,-2e-05,0.0,-0.0001,-4e-05,-4e-05,-2e-05,-2e-05,1,32.0
2894,-3e-05,-2e-05,0.0,-0.0001,-4e-05,-4e-05,-2e-05,-2e-05,1,32.0
2895,-3e-05,-2e-05,0.0,-0.0001,-4e-05,-4e-05,-2e-05,-2e-05,1,32.0
2896,-3e-05,-2e-05,0.0,-0.0001,-4e-05,-4e-05,-2e-05,-2e-05,1,32.0
2897,-3e-05,-2e-05,0.0,-0.0001,-4e-05,-4e-05,-2e-05,-2e-05,1,32.0
2898,-3e-05,-2e-05,0.0,-0.0001,-4e-05,-4e-05,-2e-05,-2e-05,1,32.0
2899,-3e-05,-2e-05,0.0,-0.0001,-4e-05,-4e-05,-2e-05,-2e-05,1,32.0
2900,-3e-05,-2e-05,0.0,-0.0001,-4e-05,-4e-05,-2e-05,-2e-05,1,32.0
2901,-3e-05,-2e-05,0.0,-0.0001,-4e-05,-4e-05,-2e-05,-2e-05,1,32.0
2902,-3e-05,-2e-05,0.0,-0.0001,-4e-05,-4e-05,-2e-05,-2e-05,1,32.0
2903,-3e-05,-2e-05,-2e-05,0.0,0.0,-1e-05,-4e-05,-2e-05,1,32.0
2904,-1e-05,0.0,2e-05,0.0,-3e-05,-4e-05,-3e-05,0.0,1,32.0
2905,-1e-05,0.0,-2e-05,-3e-05,-3e-05,-1e-05,0.0,-1e-05,1,32.0
2906,-1e-05,0.0,-2e-05,-3e-05,-3e-05,-1e-05,0.0,-1e-05,1,32.0
2907,-1e-05,0.0,-2e-05,-3e-05,-3e-05,-1e-05,0.0,-1e-05,1,32.0
2908,-1e-05,0.0,-2e-05,-3e-05,-3e-05,-1e-05,0.0,-1e-05,1,32.0
2909,-1e-05,0.0,-2e-05,-3e-05,-3e-05,-1e-05,0.0,-1e-05,1,32.0
2910,-1e-05,0.0,-2e-05,-3e-05,-3e-05,-1e-05,0.0,-1e-05,1,32.0
2911,-1e-05,0.0,-2e-05,-3e-05,-3e-05,-1e-05,0.0,-1e-05,1,32.0
2912,-1e-05,0.0,-2e-05,-3e-05,-3e-05,-1e-05,0.0,-1e-05,1,32.0
2913,-1e-05,0.0,-2e-05,-3e-05,-3e-05,-1e-05,0.0,-1e-05,1,32.0
2914,-1e-05,0.0,-2e-05,-3e-05,-3e-05,-1e-05,0.0,-1e-05,1,32.0
2915,-1e-05,0.0,-2e-05,-3e-05,-3e-05,-1e-05,0.0,-1e-05,1,32.0
2916,-1e-05,0.0,-2e-05,-3e-05,-3e-05,-1e-05,0.0,-1e-05,1,32.0
2917,-1e-05,0.0,-2e-05,-3e-05,-3e-05,-1e-05,0.0,-1e-05,1,32.0
2918,-1e-05,0.0,-2e-05,-3e-05,-3e-05,-1e-05,0.0,-1e-05,1,32.0
2919,-1e-05,0.0,-2e-05,-3e-05,-3e-05,-1e-05,0.0,-1e-05,1,32.0
2920,-1e-05,0.0,-2e-05,-3e-05,-3e-05,-1e-05,0.0,-1e-05,1,32.0
2921,-1e-05,0.0,-2e-05,-3e-05,-3e-05,-1e-05,0.0,-1e-05,1,32.0
2922,-1e-05,0.0,-2e-05,-3e-05,-3e-05,-1e-05,0.0,-1e-05,1,32.0
2923,-1e-05,0.0,-2e-05,-3e-05,-3e-05,-1e-05,0.0,-1e-05,1,32.0
2924,-1e-05,0.0,-2e-05,-3e-05,-3e-05,-1e-05,0.0,-1e-05,1,32.0
2925,-1e-05,0.0,-2e-05,-3e-05,-3e-05,-1e-05,0.0,-1e-05,1,32.0
2926,0.0,1e-05,3e-05,2e-05,2e-05,1e-05,1e-05,1e-05,1,32.0
2927,1e-05,3e-05,6e-05,9e-05,0.0,1e-05,-2e-05,-1e-05,1,32.0
2928,1e-05,3e-05,6e-05,9e-05,0.0,1e-05,-2e-05,-1e-05,1,32.0
2929,1e-05,3e-05,6e-05,9e-05,0.0,1e-05,-2e-05,-1e-05,1,32.0
2930,1e-05,3e-05,6e-05,9e-05,0.0,1e-05,-2e-05,-1e-05,1,32.0
2931,1e-05,3e-05,6e-05,9e-05,0.0,1e-05,-2e-05,-1e-05,1,32.0
2932,1e-05,3e-05,6e-05,9e-05,0.0,1e-05,-2e-05,-1e-05,1,32.0
2933,1e-05,3e-05,6e-05,9e-05,0.0,1e-05,-2e-05,-1e-05,1,32.0
2934,1e-05,3e-05,6e-05,9e-05,0.0,1e-05,-2e-05,-1e-05,1,32.0
2935,1e-05,3e-05,6e-05,9e-05,0.0,1e-05,-2e-05,-1e-05,1,32.0
2936,1e-05,3e-05,6e-05,9e-05,0.0,1e-05,-2e-05,-1e-05,1,32.0
2939,-3e-05,-3e-05,-1e-05,3e-05,-2e-05,-2e-05,-2e-05,-2e-05,1,32.0
2940,-3e-05,-3e-05,-1e-05,3e-05,-2e-05,-2e-05,-2e-05,-2e-05,1,32.0
2941,-3e-05,-3e-05,-1e-05,3e-05,-2e-05,-2e-05,-2e-05,-2e-05,1,32.0
2942,-3e-05,-3e-05,-1e-05,3e-05,-2e-05,-2e-05,-2e-05,-2e-05,1,32.0
2943,-3e-05,-3e-05,-1e-05,3e-05,-2e-05,-2e-05,-2e-05,-2e-05,1,32.0
2944,-3e-05,-3e-05,-1e-05,3e-05,-2e-05,-2e-05,-2e-05,-2e-05,1,32.0
2945,-3e-05,-3e-05,-1e-05,3e-05,-2e-05,-2e-05,-2e-05,-2e-05,1,32.0
2946,-3e-05,-3e-05,-1e-05,3e-05,-2e-05,-2e-05,-2e-05,-2e-05,1,32.0
2947,-3e-05,-3e-05,-1e-05,3e-05,-2e-05,-2e-05,-2e-05,-2e-05,1,32.0
2948,0.0,1e-05,-1e-05,2e-05,2e-05,-2e-05,0.0,0.0,1,32.0
2949,0.0,1e-05,-1e-05,2e-05,2e-05,-2e-05,0.0,0.0,1,32.0
2950,0.0,1e-05,-1e-05,2e-05,2e-05,-2e-05,0.0,0.0,1,32.0
2951,0.0,1e-05,-1e-05,2e-05,2e-05,-2e-05,0.0,0.0,1,32.0
2952,0.0,1e-05,-1e-05,2e-05,2e-05,-2e-05,0.0,0.0,1,32.0
2953,0.0,1e-05,-1e-05,2e-05,2e-05,-2e-05,0.0,0.0,1,32.0
2954,0.0,1e-05,-1e-05,2e-05,2e-05,-2e-05,0.0,0.0,1,32.0
2955,0.0,1e-05,-1e-05,2e-05,2e-05,-2e-05,0.0,0.0,1,32.0
2956,0.0,1e-05,-1e-05,2e-05,2e-05,-2e-05,0.0,0.0,1,32.0
2957,0.0,1e-05,-1e-05,2e-05,2e-05,-2e-05,0.0,0.0,1,32.0
2958,0.0,1e-05,-1e-05,2e-05,2e-05,-2e-05,0.0,0.0,1,32.0
2959,0.0,1e-05,-1e-05,2e-05,2e-05,-2e-05,0.0,0.0,1,32.0
2960,0.0,1e-05,-1e-05,2e-05,2e-05,-2e-05,0.0,0.0,1,32.0
2961,0.0,1e-05,-1e-05,2e-05,2e-05,-2e-05,0.0,0.0,1,32.0
2962,0.0,1e-05,-1e-05,2e-05,2e-05,-2e-05,0.0,0.0,1,32.0
2963,-1e-05,-1e-05,-1e-05,-4e-05,0.0,-2e-05,0.0,-1e-05,1,32.0
2965,-3e-05,-2e-05,-3e-05,1e-05,0.0,1e-05,-1e-05,-3e-05,1,32.0
2966,-3e-05,-2e-05,-3e-05,1e-05,0.0,1e-05,-1e-05,-3e-05,1,32.0
2967,-3e-05,-2e-05,-3e-05,1e-05,0.0,1e-05,-1e-05,-3e-05,1,32.0
2968,-3e-05,-2e-05,-3e-05,1e-05,0.0,1e-05,-1e-05,-3e-05,1,32.0
2969,-3e-05,-2e-05,-3e-05,1e-05,0.0,1e-05,-1e-05,-3e-05,1,32.0
2970,-3e-05,-2e-05,-3e-05,1e-05,0.0,1e-05,-1e-05,-3e-05,1,32.0
2971,-3e-05,-2e-05,-3e-05,1e-05,0.0,1e-05,-1e-05,-3e-05,1,32.0
2972,-3e-05,-2e-05,-3e-05,1e-05,0.0,1e-05,-1e-05,-3e-05,1,32.0
2973,-3e-05,-2e-05,-3e-05,1e-05,0.0,1e-05,-1e-05,-3e-05,1,32.0
2974,-3e-05,-2e-05,-3e-05,1e-05,0.0,1e-05,-1e-05,-3e-05,1,32.0
2975,-3e-05,-2e-05,-3e-05,1e-05,0.0,1e-05,-1e-05,-3e-05,1,32.0
2976,-3e-05,-2e-05,-3e-05,1e-05,0.0,1e-05,-1e-05,-3e-05,1,32.0
2977,-3e-05,-2e-05,-3e-05,1e-05,0.0,1e-05,-1e-05,-3e-05,1,32.0
2978,-3e-05,-2e-05,-3e-05,1e-05,0.0,1e-05,-1e-05,-3e-05,1,32.0
2979,-3e-05,-2e-05,-3e-05,1e-05,0.0,1e-05,-1e-05,-3e-05,1,32.0
2980,-3e-05,-2e-05,-3e-05,1e-05,0.0,1e-05,-1e-05,-3e-05,1,32.0
2981,-3e-05,-2e-05,-3e-05,1e-05,0.0,1e-05,-1e-05,-3e-05,1,32.0
2982,-3e-05,-2e-05,-3e-05,1e-05,0.0,1e-05,-1e-05,-3e-05,1,32.0
2983,-3e-05,-2e-05,-3e-05,1e-05,0.0,1e-05,-1e-05,-3e-05,1,32.0
2984,-3e-05,-2e-05,-3e-05,1e-05,0.0,1e-05,-1e-05,-3e-05,1,32.0
2985,-3e-05,-2e-05,-3e-05,1e-05,0.0,1e-05,-1e-05,-3e-05,1,32.0
2987,0.0,1e-05,0.0,-1e-05,-2e-05,-1e-05,-1e-05,2e-05,1,32.0
2989,-3e-05,-4e-05,-3e-05,0.0,-2e-05,-3e-05,0.0,-2e-05,1,32.0
2990,-3e-05,-4e-05,-3e-05,0.0,-2e-05,-3e-05,0.0,-2e-05,1,32.0
2991,-3e-05,-4e-05,-3e-05,0.0,-2e-05,-3e-05,0.0,-2e-05,1,32.0
2992,-3e-05,-4e-05,-3e-05,0.0,-2e-05,-3e-05,0.0,-2e-05,1,32.0
2993,-3e-05,-4e-05,-3e-05,0.0,-2e-05,-3e-05,0.0,-2e-05,1,32.0
2994,-3e-05,-4e-05,-3e-05,0.0,-2e-05,-3e-05,0.0,-2e-05,1,32.0
2995,-3e-05,-4e-05,-3e-05,0.0,-2e-05,-3e-05,0.0,-2e-05,1,32.0
2996,-3e-05,-4e-05,-3e-05,0.0,-2e-05,-3e-05,0.0,-2e-05,1,32.0
2997,-3e-05,-4e-05,-3e-05,0.0,-2e-05,-3e-05,0.0,-2e-05,1,32.0
2998,-3e-05,-4e-05,-3e-05,0.0,-2e-05,-3e-05,0.0,-2e-05,1,32.0
2999,2e-05,0.0,3e-05,7e-05,0.0,4e-05,-1e-05,-3e-05,1,32.0
3000,2e-05,0.0,3e-05,7e-05,0.0,4e-05,-1e-05,-3e-05,1,32.0
3001,2e-05,0.0,3e-05,7e-05,0.0,4e-05,-1e-05,-3e-05,1,32.0
3002,2e-05,0.0,3e-05,7e-05,0.0,4e-05,-1e-05,-3e-05,1,32.0
3003,2e-05,0.0,3e-05,7e-05,0.0,4e-05,-1e-05,-3e-05,1,32.0
3004,2e-05,0.0,3e-05,7e-05,0.0,4e-05,-1e-05,-3e-05,1,32.0
3005,2e-05,0.0,3e-05,7e-05,0.0,4e-05,-1e-05,-3e-05,1,32.0
3006,2e-05,0.0,3e-05,7e-05,0.0,4e-05,-1e-05,-3e-05,1,32.0
3007,2e-05,0.0,3e-05,7e-05,0.0,4e-05,-1e-05,-3e-05,1,32.0
3008,-1e-05,-1e-05,-5e-05,-3e-05,-4e-05,-5e-05,-2e-05,1e-05,1,32.0
3009,-1e-05,-1e-05,-5e-05,-3e-05,-4e-05,-5e-05,-2e-05,1e-05,1,32.0
3010,-1e-05,-1e-05,-5e-05,-3e-05,-4e-05,-5e-05,-2e-05,1e-05,1,32.0
3011,-1e-05,-1e-05,-5e-05,-3e-05,-4e-05,-5e-05,-2e-05,1e-05,1,32.0
3012,-1e-05,-1e-05,-5e-05,-3e-05,-4e-05,-5e-05,-2e-05,1e-05,1,32.0
3013,-1e-05,-1e-05,-5e-05,-3e-05,-4e-05,-5e-05,-2e-05,1e-05,1,32.0
3014,-1e-05,-1e-05,-5e-05,-3e-05,-4e-05,-5e-05,-2e-05,1e-05,1,32.0
3015,-1e-05,-1e-05,-5e-05,-3e-05,-4e-05,-5e-05,-2e-05,1e-05,1,32.0
3016,-1e-05,-1e-05,-5e-05,-3e-05,-4e-05,-5e-05,-2e-05,1e-05,1,32.0
3017,-1e-05,-1e-05,-5e-05,-3e-05,-4e-05,-5e-05,-2e-05,1e-05,1,32.0
3018,-1e-05,-1e-05,-5e-05,-3e-05,-4e-05,-5e-05,-2e-05,1e-05,1,32.0
3019,-1e-05,-1e-05,-5e-05,-3e-05,-4e-05,-5e-05,-2e-05,1e-05,1,32.0
3020,-1e-05,-1e-05,-5e-05,-3e-05,-4e-05,-5e-05,-2e-05,1e-05,1,32.0
3021,-1e-05,-1e-05,-5e-05,-3e-05,-4e-05,-5e-05,-2e-05,1e-05,1,32.0
3022,-1e-05,-1e-05,-5e-05,-3e-05,-4e-05,-5e-05,-2e-05,1e-05,1,32.0
3023,-4e-05,-2e-05,-3e-05,-4e-05,3e-05,-5e-05,0.0,-1e-05,1,32.0
3024,0.0,-1e-05,-2e-05,-3e-05,-1e-05,4e-05,1e-05,-3e-05,1,32.0
3025,0.0,-1e-05,-2e-05,-3e-05,-1e-05,4e-05,1e-05,-3e-05,1,32.0
3026,0.0,-1e-05,-2e-05,-3e-05,-1e-05,4e-05,1e-05,-3e-05,1,32.0
3027,0.0,-1e-05,-2e-05,-3e-05,-1e-05,4e-05,1e-05,-3e-05,1,32.0
3028,0.0,-1e-05,-2e-05,-3e-05,-1e-05,4e-05,1e-05,-3e-05,1,32.0
3029,0.0,-1e-05,-2e-05,-3e-05,-1e-05,4e-05,1e-05,-3e-05,1,32.0
3030,0.0,-1e-05,-2e-05,-3e-05,-1e-05,4e-05,1e-05,-3e-05,1,32.0
3031,0.0,-1e-05,-2e-05,-3e-05,-1e-05,4e-05,1e-05,-3e-05,1,32.0
3032,0.0,-1e-05,-2e-05,-3e-05,-1e-05,4e-05,1e-05,-3e-05,1,32.0
3033,0.0,-1e-05,-2e-05,-3e-05,-1e-05,4e-05,1e-05,-3e-05,1,32.0
3034,0.0,-1e-05,-2e-05,-3e-05,-1e-05,4e-05,1e-05,-3e-05,1,32.0
3035,0.0,-1e-05,-2e-05,-3e-05,-1e-05,4e-05,1e-05,-3e-05,1,32.0
3036,0.0,-1e-05,-2e-05,-3e-05,-1e-05,4e-05,1e-05,-3e-05,1,32.0
3038,0.0,-1e-05,-2e-05,-3e-05,-1e-05,4e-05,1e-05,-3e-05,1,32.0
3039,0.0,-1e-05,-2e-05,-3e-05,-1e-05,4e-05,1e-05,-3e-05,1,32.0
3040,0.0,-1e-05,-2e-05,-3e-05,-1e-05,4e-05,1e-05,-3e-05,1,32.0
3041,0.0,-1e-05,-2e-05,-3e-05,-1e-05,4e-05,1e-05,-3e-05,1,32.0
3042,0.0,-1e-05,-2e-05,-3e-05,-1e-05,4e-05,1e-05,-3e-05,1,32.0
3043,0.0,-1e-05,-2e-05,-3e-05,-1e-05,4e-05,1e-05,-3e-05,1,32.0
3044,0.0,-1e-05,-2e-05,-3e-05,-1e-05,4e-05,1e-05,-3e-05,1,32.0
3045,0.0,-1e-05,-2e-05,-3e-05,-1e-05,4e-05,1e-05,-3e-05,1,32.0
3046,1e-05,-2e-05,-3e-05,-3e-05,-6e-05,-8e-05,-1e-05,1e-05,1,32.0
3047,1e-05,-2e-05,-3e-05,-3e-05,-6e-05,-8e-05,-1e-05,1e-05,1,32.0
3048,-2e-05,-2e-05,-2e-05,-3e-05,-5e-05,-0.00011,-3e-05,0.0,1,32.0
3049,-2e-05,-2e-05,-2e-05,-3e-05,-5e-05,-0.00011,-3e-05,0.0,1,32.0
3050,-2e-05,-2e-05,-2e-05,-3e-05,-5e-05,-0.00011,-3e-05,0.0,1,32.0
3051,-2e-05,-2e-05,-2e-05,-3e-05,-5e-05,-0.00011,-3e-05,0.0,1,32.0
3052,-2e-05,-2e-05,-2e-05,-3e-05,-5e-05,-0.00011,-3e-05,0.0,1,32.0
3053,-2e-05,-2e-05,-2e-05,-3e-05,-5e-05,-0.00011,-3e-05,0.0,1,32.0
3054,-2e-05,-2e-05,-2e-05,-3e-05,-5e-05,-0.00011,-3e-05,0.0,1,32.0
3055,-2e-05,-2e-05,-2e-05,-3e-05,-5e-05,-0.00011,-3e-05,0.0,1,32.0
3056,-2e-05,-2e-05,-2e-05,-3e-05,-5e-05,-0.00011,-3e-05,0.0,1,32.0
3057,-2e-05,-2e-05,-2e-05,-3e-05,-5e-05,-0.00011,-3e-05,0.0,1,32.0
3058,-2e-05,-2e-05,-2e-05,-3e-05,-5e-05,-0.00011,-3e-05,0.0,1,32.0
3059,1e-05,1e-05,-2e-05,-8e-05,-5e-05,-3e-05,-2e-05,-1e-05,1,32.0
3060,1e-05,1e-05,-2e-05,-8e-05,-5e-05,-3e-05,-2e-05,-1e-05,1,32.0
3061,1e-05,1e-05,-2e-05,-8e-05,-5e-05,-3e-05,-2e-05,-1e-05,1,32.0
3062,1e-05,1e-05,-2e-05,-8e-05,-5e-05,-3e-05,-2e-05,-1e-05,1,32.0
3063,1e-05,1e-05,-2e-05,-8e-05,-5e-05,-3e-05,-2e-05,-1e-05,1,32.0
3064,1e-05,1e-05,-2e-05,-8e-05,-5e-05,-3e-05,-2e-05,-1e-05,1,32.0
3065,1e-05,1e-05,-2e-05,-8e-05,-5e-05,-3e-05,-2e-05,-1e-05,1,32.0
3066,1e-05,1e-05,-2e-05,-8e-05,-5e-05,-3e-05,-2e-05,-1e-05,1,32.0
3067,1e-05,1e-05,-2e-05,-8e-05,-5e-05,-3e-05,-2e-05,-1e-05,1,32.0
3068,-1e-05,-1e-05,0.0,2e-05,3e-05,-4e-05,-1e-05,-1e-05,1,32.0
3070,-1e-05,-1e-05,0.0,2e-05,3e-05,-4e-05,-1e-05,-1e-05,1,32.0
3071,-1e-05,-1e-05,0.0,2e-05,3e-05,-4e-05,-1e-05,-1e-05,1,32.0
3072,-1e-05,-1e-05,0.0,2e-05,3e-05,-4e-05,-1e-05,-1e-05,1,32.0
3073,-1e-05,-1e-05,0.0,2e-05,3e-05,-4e-05,-1e-05,-1e-05,1,32.0
3074,-1e-05,-1e-05,0.0,2e-05,3e-05,-4e-05,-1e-05,-1e-05,1,32.0
3075,-1e-05,-1e-05,0.0,2e-05,3e-05,-4e-05,-1e-05,-1e-05,1,32.0
3076,-1e-05,-1e-05,0.0,2e-05,3e-05,-4e-05,-1e-05,-1e-05,1,32.0
3077,-1e-05,-1e-05,0.0,2e-05,3e-05,-4e-05,-1e-05,-1e-05,1,32.0
3078,-1e-05,-1e-05,0.0,2e-05,3e-05,-4e-05,-1e-05,-1e-05,1,32.0
3079,-1e-05,-1e-05,0.0,2e-05,3e-05,-4e-05,-1e-05,-1e-05,1,32.0
3080,-1e-05,-1e-05,0.0,2e-05,3e-05,-4e-05,-1e-05,-1e-05,1,32.0
3081,-1e-05,-1e-05,0.0,2e-05,3e-05,-4e-05,-1e-05,-1e-05,1,32.0
3082,-1e-05,-1e-05,0.0,2e-05,3e-05,-4e-05,-1e-05,-1e-05,1,32.0
3083,-1e-05,1e-05,4e-05,2e-05,2e-05,4e-05,0.0,-1e-05,1,32.0
3084,-1e-05,1e-05,4e-05,2e-05,2e-05,4e-05,0.0,-1e-05,1,32.0
3085,-1e-05,-4e-05,-7e-05,-4e-05,-1e-05,3e-05,0.0,0.0,1,32.0
3086,-1e-05,-4e-05,-7e-05,-4e-05,-1e-05,3e-05,0.0,0.0,1,32.0
3088,-1e-05,-4e-05,-7e-05,-4e-05,-1e-05,3e-05,0.0,0.0,1,32.0
3089,-1e-05,-4e-05,-7e-05,-4e-05,-1e-05,3e-05,0.0,0.0,1,32.0
3090,-1e-05,-4e-05,-7e-05,-4e-05,-1e-05,3e-05,0.0,0.0,1,32.0
3091,-1e-05,-4e-05,-7e-05,-4e-05,-1e-05,3e-05,0.0,0.0,1,32.0
3092,-1e-05,-4e-05,-7e-05,-4e-05,-1e-05,3e-05,0.0,0.0,1,32.0
3093,-1e-05,-4e-05,-7e-05,-4e-05,-1e-05,3e-05,0.0,0.0,1,32.0
3094,-1e-05,-4e-05,-7e-05,-4e-05,-1e-05,3e-05,0.0,0.0,1,32.0
3095,-1e-05,-4e-05,-7e-05,-4e-05,-1e-05,3e-05,0.0,0.0,1,32.0
3096,-1e-05,-4e-05,-7e-05,-4e-05,-1e-05,3e-05,0.0,0.0,1,32.0
3097,-1e-05,-4e-05,-7e-05,-4e-05,-1e-05,3e-05,0.0,0.0,1,32.0
3098,-1e-05,-4e-05,-7e-05,-4e-05,-1e-05,3e-05,0.0,0.0,1,32.0
3099,-1e-05,-4e-05,-7e-05,-4e-05,-1e-05,3e-05,0.0,0.0,1,32.0
3100,-1e-05,-4e-05,-7e-05,-4e-05,-1e-05,3e-05,0.0,0.0,1,32.0
3101,-1e-05,-4e-05,-7e-05,-4e-05,-1e-05,3e-05,0.0,0.0,1,32.0
3102,-1e-05,-4e-05,-7e-05,-4e-05,-1e-05,3e-05,0.0,0.0,1,32.0
3103,-1e-05,-4e-05,-7e-05,-4e-05,-1e-05,3e-05,0.0,0.0,1,32.0
3104,-1e-05,-4e-05,-7e-05,-4e-05,-1e-05,3e-05,0.0,0.0,1,32.0
3105,-1e-05,-4e-05,-7e-05,-4e-05,-1e-05,3e-05,0.0,0.0,1,32.0
3106,1e-05,2e-05,0.0,-3e-05,-2e-05,2e-05,0.0,0.0,1,32.0
3107,-2e-05,-2e-05,-3e-05,-1e-05,-1e-05,1e-05,0.0,-1e-05,1,32.0
3108,-2e-05,-2e-05,-3e-05,-1e-05,-1e-05,1e-05,0.0,-1e-05,1,32.0
3109,-2e-05,-2e-05,-3e-05,-1e-05,-1e-05,1e-05,0.0,-1e-05,1,32.0
3110,-2e-05,-2e-05,-3e-05,-1e-05,-1e-05,1e-05,0.0,-1e-05,1,32.0
3111,-2e-05,-2e-05,-3e-05,-1e-05,-1e-05,1e-05,0.0,-1e-05,1,32.0
3112,-2e-05,-2e-05,-3e-05,-1e-05,-1e-05,1e-05,0.0,-1e-05,1,32.0
3113,-2e-05,-2e-05,-3e-05,-1e-05,-1e-05,1e-05,0.0,-1e-05,1,32.0
3114,-2e-05,-2e-05,-3e-05,-1e-05,-1e-05,1e-05,0.0,-1e-05,1,32.0
3115,-2e-05,-2e-05,-3e-05,-1e-05,-1e-05,1e-05,0.0,-1e-05,1,32.0
3116,-2e-05,-2e-05,-3e-05,-1e-05,-1e-05,1e-05,0.0,-1e-05,1,32.0
3117,-2e-05,-2e-05,-3e-05,-1e-05,-1e-05,1e-05,0.0,-1e-05,1,32.0
3118,-2e-05,-2e-05,-3e-05,-1e-05,-1e-05,1e-05,0.0,-1e-05,1,32.0
3119,-2e-05,-2e-05,-3e-05,-1e-05,-1e-05,1e-05,0.0,-1e-05,1,32.0
3120,-2e-05,-2e-05,-1e-05,0.0,-4e-05,-2e-05,-3e-05,-1e-05,1,32.0
3121,-2e-05,-2e-05,-1e-05,0.0,-4e-05,-2e-05,-3e-05,-1e-05,1,32.0
3122,-2e-05,-2e-05,-1e-05,0.0,-4e-05,-2e-05,-3e-05,-1e-05,1,32.0
3123,-2e-05,-2e-05,-1e-05,0.0,-4e-05,-2e-05,-3e-05,-1e-05,1,32.0
3124,-2e-05,-2e-05,-1e-05,0.0,-4e-05,-2e-05,-3e-05,-1e-05,1,32.0
3125,-2e-05,-2e-05,-1e-05,0.0,-4e-05,-2e-05,-3e-05,-1e-05,1,32.0
3126,-2e-05,-2e-05,-1e-05,0.0,-4e-05,-2e-05,-3e-05,-1e-05,1,32.0
3127,-2e-05,-2e-05,-1e-05,0.0,-4e-05,-2e-05,-3e-05,-1e-05,1,32.0
3128,1e-05,-2e-05,0.0,-3e-05,-1e-05,1e-05,-1e-05,-1e-05,1,32.0
3130,1e-05,-2e-05,0.0,-3e-05,-1e-05,1e-05,-1e-05,-1e-05,1,32.0
3131,1e-05,-2e-05,0.0,-3e-05,-1e-05,1e-05,-1e-05,-1e-05,1,32.0
3132,1e-05,-2e-05,0.0,-3e-05,-1e-05,1e-05,-1e-05,-1e-05,1,32.0
3133,1e-05,-2e-05,0.0,-3e-05,-1e-05,1e-05,-1e-05,-1e-05,1,32.0
3134,1e-05,-2e-05,0.0,-3e-05,-1e-05,1e-05,-1e-05,-1e-05,1,32.0
3135,1e-05,-2e-05,0.0,-3e-05,-1e-05,1e-05,-1e-05,-1e-05,1,32.0
3136,1e-05,-2e-05,0.0,-3e-05,-1e-05,1e-05,-1e-05,-1e-05,1,32.0
3138,1e-05,-2e-05,0.0,-3e-05,-1e-05,1e-05,-1e-05,-1e-05,1,32.0
3139,1e-05,-2e-05,0.0,-3e-05,-1e-05,1e-05,-1e-05,-1e-05,1,32.0
3140,1e-05,-2e-05,0.0,-3e-05,-1e-05,1e-05,-1e-05,-1e-05,1,32.0
3141,1e-05,-2e-05,0.0,-3e-05,-1e-05,1e-05,-1e-05,-1e-05,1,32.0
3142,1e-05,-2e-05,0.0,-3e-05,-1e-05,1e-05,-1e-05,-1e-05,1,32.0
3143,-1e-05,3e-05,0.0,7e-05,1e-05,-3e-05,-1e-05,0.0,1,32.0
3144,-1e-05,3e-05,0.0,7e-05,1e-05,-3e-05,-1e-05,0.0,1,32.0
3145,-1e-05,-1e-05,-3e-05,1e-05,-1e-05,0.0,-1e-05,-1e-05,1,32.0
3146,-1e-05,-1e-05,-3e-05,1e-05,-1e-05,0.0,-1e-05,-1e-05,1,32.0
3147,-1e-05,-1e-05,-3e-05,1e-05,-1e-05,0.0,-1e-05,-1e-05,1,32.0
3148,-1e-05,-1e-05,-3e-05,1e-05,-1e-05,0.0,-1e-05,-1e-05,1,32.0
3149,-1e-05,-1e-05,-3e-05,1e-05,-1e-05,0.0,-1e-05,-1e-05,1,32.0
3150,-1e-05,-1e-05,-3e-05,1e-05,-1e-05,0.0,-1e-05,-1e-05,1,32.0
4967,0.00068,1e-05,-6e-05,-0.00011,0.0001,1e-05,0.0001,8e-05,2,32.0
4968,0.00068,1e-05,-6e-05,-0.00011,0.0001,1e-05,0.0001,8e-05,2,32.0
4969,0.00068,1e-05,-6e-05,-0.00011,0.0001,1e-05,0.0001,8e-05,2,32.0
4970,0.00068,1e-05,-6e-05,-0.00011,0.0001,1e-05,0.0001,8e-05,2,32.0
4971,0.00068,1e-05,-6e-05,-0.00011,0.0001,1e-05,0.0001,8e-05,2,32.0
4972,0.00088,9e-05,0.00013,0.00026,0.0,-0.00011,-1e-05,0.00044,2,32.0
4973,-6e-05,6e-05,-0.00011,-0.00022,-0.00025,-9e-05,-8e-05,-0.00042,2,32.0
4974,-6e-05,6e-05,-0.00011,-0.00022,-0.00025,-9e-05,-8e-05,-0.00042,2,32.0
4975,-6e-05,6e-05,-0.00011,-0.00022,-0.00025,-9e-05,-8e-05,-0.00042,2,32.0
4976,-6e-05,6e-05,-0.00011,-0.00022,-0.00025,-9e-05,-8e-05,-0.00042,2,32.0
4977,-6e-05,6e-05,-0.00011,-0.00022,-0.00025,-9e-05,-8e-05,-0.00042,2,32.0
4978,-6e-05,6e-05,-0.00011,-0.00022,-0.00025,-9e-05,-8e-05,-0.00042,2,32.0
4979,-6e-05,6e-05,-0.00011,-0.00022,-0.00025,-9e-05,-8e-05,-0.00042,2,32.0
4980,-6e-05,6e-05,-0.00011,-0.00022,-0.00025,-9e-05,-8e-05,-0.00042,2,32.0
4981,-6e-05,6e-05,-0.00011,-0.00022,-0.00025,-9e-05,-8e-05,-0.00042,2,32.0
4982,-6e-05,6e-05,-0.00011,-0.00022,-0.00025,-9e-05,-8e-05,-0.00042,2,32.0
4983,-6e-05,6e-05,-0.00011,-0.00022,-0.00025,-9e-05,-8e-05,-0.00042,2,32.0
4984,-6e-05,6e-05,-0.00011,-0.00022,-0.00025,-9e-05,-8e-05,-0.00042,2,32.0
4985,-6e-05,6e-05,-0.00011,-0.00022,-0.00025,-9e-05,-8e-05,-0.00042,2,32.0
4986,-6e-05,6e-05,-0.00011,-0.00022,-0.00025,-9e-05,-8e-05,-0.00042,2,32.0
4989,0.00049,0.0001,-0.00011,-0.0002,0.0002,-9e-05,-6e-05,-0.00018,2,32.0
4990,0.00049,0.0001,-0.00011,-0.0002,0.0002,-9e-05,-6e-05,-0.00018,2,32.0
4992,0.00049,0.0001,-0.00011,-0.0002,0.0002,-9e-05,-6e-05,-0.00018,2,32.0
4993,0.00049,0.0001,-0.00011,-0.0002,0.0002,-9e-05,-6e-05,-0.00018,2,32.0
4994,0.00049,0.0001,-0.00011,-0.0002,0.0002,-9e-05,-6e-05,-0.00018,2,32.0
4995,0.00049,0.0001,-0.00011,-0.0002,0.0002,-9e-05,-6e-05,-0.00018,2,32.0
4996,0.00049,0.0001,-0.00011,-0.0002,0.0002,-9e-05,-6e-05,-0.00018,2,32.0
4997,0.00049,0.0001,-0.00011,-0.0002,0.0002,-9e-05,-6e-05,-0.00018,2,32.0
4998,0.00049,0.0001,-0.00011,-0.0002,0.0002,-9e-05,-6e-05,-0.00018,2,32.0
4999,0.00049,0.0001,-0.00011,-0.0002,0.0002,-9e-05,-6e-05,-0.00018,2,32.0
5000,0.00049,0.0001,-0.00011,-0.0002,0.0002,-9e-05,-6e-05,-0.00018,2,32.0
5001,0.00049,0.0001,-0.00011,-0.0002,0.0002,-9e-05,-6e-05,-0.00018,2,32.0
5002,0.00049,0.0001,-0.00011,-0.0002,0.0002,-9e-05,-6e-05,-0.00018,2,32.0
5003,0.00049,0.0001,-0.00011,-0.0002,0.0002,-9e-05,-6e-05,-0.00018,2,32.0
5004,0.00049,0.0001,-0.00011,-0.0002,0.0002,-9e-05,-6e-05,-0.00018,2,32.0
5005,0.00049,0.0001,-0.00011,-0.0002,0.0002,-9e-05,-6e-05,-0.00018,2,32.0
5006,0.00049,0.0001,-0.00011,-0.0002,0.0002,-9e-05,-6e-05,-0.00018,2,32.0
5007,0.00049,0.0001,-0.00011,-0.0002,0.0002,-9e-05,-6e-05,-0.00018,2,32.0
5008,0.00049,0.0001,-0.00011,-0.0002,0.0002,-9e-05,-6e-05,-0.00018,2,32.0
5009,0.00049,0.0001,-0.00011,-0.0002,0.0002,-9e-05,-6e-05,-0.00018,2,32.0
5010,0.00049,0.0001,-0.00011,-0.0002,0.0002,-9e-05,-6e-05,-0.00018,2,32.0
5011,-0.00071,-5e-05,-3e-05,-0.0002,0.00028,0.00021,0.00012,4e-05,2,32.0
5012,-0.00071,-5e-05,-3e-05,-0.0002,0.00028,0.00021,0.00012,4e-05,2,32.0
5013,-0.00071,-5e-05,-3e-05,-0.0002,0.00028,0.00021,0.00012,4e-05,2,32.0
5014,-0.00071,-5e-05,-3e-05,-0.0002,0.00028,0.00021,0.00012,4e-05,2,32.0
5015,-0.00071,-5e-05,-3e-05,-0.0002,0.00028,0.00021,0.00012,4e-05,2,32.0
5016,-0.00071,-5e-05,-3e-05,-0.0002,0.00028,0.00021,0.00012,4e-05,2,32.0
5017,-0.00071,-5e-05,-3e-05,-0.0002,0.00028,0.00021,0.00012,4e-05,2,32.0
5018,-0.00071,-5e-05,-3e-05,-0.0002,0.00028,0.00021,0.00012,4e-05,2,32.0
5019,-0.00071,-5e-05,-3e-05,-0.0002,0.00028,0.00021,0.00012,4e-05,2,32.0
5020,-0.00071,-5e-05,-3e-05,-0.0002,0.00028,0.00021,0.00012,4e-05,2,32.0
5021,-0.00071,-5e-05,-3e-05,-0.0002,0.00028,0.00021,0.00012,4e-05,2,32.0
5022,-0.00071,-5e-05,-3e-05,-0.0002,0.00028,0.00021,0.00012,4e-05,2,32.0
5023,-0.00071,-5e-05,-3e-05,-0.0002,0.00028,0.00021,0.00012,4e-05,2,32.0
5024,-0.00055,-0.00012,-6e-05,-9e-05,4e-05,7e-05,-0.0001,-0.00058,2,32.0
5025,-0.00055,-0.00012,-6e-05,-9e-05,4e-05,7e-05,-0.0001,-0.00058,2,32.0
5026,-0.00055,-0.00012,-6e-05,-9e-05,4e-05,7e-05,-0.0001,-0.00058,2,32.0
5027,-0.00055,-0.00012,-6e-05,-9e-05,4e-05,7e-05,-0.0001,-0.00058,2,32.0
5028,-0.00055,-0.00012,-6e-05,-9e-05,4e-05,7e-05,-0.0001,-0.00058,2,32.0
5029,-0.00055,-0.00012,-6e-05,-9e-05,4e-05,7e-05,-0.0001,-0.00058,2,32.0
5030,-0.00055,-0.00012,-6e-05,-9e-05,4e-05,7e-05,-0.0001,-0.00058,2,32.0
5031,-0.00055,-0.00012,-6e-05,-9e-05,4e-05,7e-05,-0.0001,-0.00058,2,32.0
5033,5e-05,5e-05,-2e-05,-4e-05,0.00017,0.0001,-0.00012,-0.00032,2,32.0
5034,5e-05,5e-05,-2e-05,-4e-05,0.00017,0.0001,-0.00012,-0.00032,2,32.0
5035,5e-05,5e-05,-2e-05,-4e-05,0.00017,0.0001,-0.00012,-0.00032,2,32.0
5036,5e-05,5e-05,-2e-05,-4e-05,0.00017,0.0001,-0.00012,-0.00032,2,32.0
5039,5e-05,5e-05,-2e-05,-4e-05,0.00017,0.0001,-0.00012,-0.00032,2,32.0
5040,5e-05,5e-05,-2e-05,-4e-05,0.00017,0.0001,-0.00012,-0.00032,2,32.0
5041,5e-05,5e-05,-2e-05,-4e-05,0.00017,0.0001,-0.00012,-0.00032,2,32.0
5042,5e-05,5e-05,-2e-05,-4e-05,0.00017,0.0001,-0.00012,-0.00032,2,32.0
5043,5e-05,5e-05,-2e-05,-4e-05,0.00017,0.0001,-0.00012,-0.00032,2,32.0
5044,5e-05,5e-05,-2e-05,-4e-05,0.00017,0.0001,-0.00012,-0.00032,2,32.0
5045,5e-05,5e-05,-2e-05,-4e-05,0.00017,0.0001,-0.00012,-0.00032,2,32.0
5046,5e-05,5e-05,-2e-05,-4e-05,0.00017,0.0001,-0.00012,-0.00032,2,32.0
5047,5e-05,5e-05,-2e-05,-4e-05,0.00017,0.0001,-0.00012,-0.00032,2,32.0
5048,-0.00063,1e-05,0.0001,8e-05,-3e-05,-0.00012,-0.00013,0.00019,2,32.0
5049,0.00064,4e-05,0.00011,0.00018,0.0001,2e-05,-0.00018,0.00036,2,32.0
5050,0.00064,4e-05,0.00011,0.00018,0.0001,2e-05,-0.00018,0.00036,2,32.0
5051,0.00064,4e-05,0.00011,0.00018,0.0001,2e-05,-0.00018,0.00036,2,32.0
5052,0.00064,4e-05,0.00011,0.00018,0.0001,2e-05,-0.00018,0.00036,2,32.0
5053,0.00064,4e-05,0.00011,0.00018,0.0001,2e-05,-0.00018,0.00036,2,32.0
5054,0.00064,4e-05,0.00011,0.00018,0.0001,2e-05,-0.00018,0.00036,2,32.0
5055,0.00064,4e-05,0.00011,0.00018,0.0001,2e-05,-0.00018,0.00036,2,32.0
5056,0.00064,4e-05,0.00011,0.00018,0.0001,2e-05,-0.00018,0.00036,2,32.0
5057,0.00064,4e-05,0.00011,0.00018,0.0001,2e-05,-0.00018,0.00036,2,32.0
5058,0.00064,4e-05,0.00011,0.00018,0.0001,2e-05,-0.00018,0.00036,2,32.0
5059,0.00064,4e-05,0.00011,0.00018,0.0001,2e-05,-0.00018,0.00036,2,32.0
5060,0.00064,4e-05,0.00011,0.00018,0.0001,2e-05,-0.00018,0.00036,2,32.0
5061,0.00064,4e-05,0.00011,0.00018,0.0001,2e-05,-0.00018,0.00036,2,32.0
5062,0.00064,4e-05,0.00011,0.00018,0.0001,2e-05,-0.00018,0.00036,2,32.0
5063,0.00064,4e-05,0.00011,0.00018,0.0001,2e-05,-0.00018,0.00036,2,32.0
5064,0.00064,4e-05,0.00011,0.00018,0.0001,2e-05,-0.00018,0.00036,2,32.0
5065,0.00064,4e-05,0.00011,0.00018,0.0001,2e-05,-0.00018,0.00036,2,32.0
5066,0.00064,4e-05,0.00011,0.00018,0.0001,2e-05,-0.00018,0.00036,2,32.0
5067,0.00064,4e-05,0.00011,0.00018,0.0001,2e-05,-0.00018,0.00036,2,32.0
5068,0.00064,4e-05,0.00011,0.00018,0.0001,2e-05,-0.00018,0.00036,2,32.0
5069,0.00064,4e-05,0.00011,0.00018,0.0001,2e-05,-0.00018,0.00036,2,32.0
5070,0.00047,0.0,-0.0001,-7e-05,3e-05,-3e-05,-4e-05,4e-05,2,32.0
5071,-0.00062,-0.00018,-0.00014,-8e-05,-2e-05,6e-05,0.0002,-0.00039,2,32.0
5072,0.00016,-3e-05,4e-05,0.00023,5e-05,2e-05,0.00015,0.00022,2,32.0
5073,0.00016,-3e-05,4e-05,0.00023,5e-05,2e-05,0.00015,0.00022,2,32.0
5074,0.00016,-3e-05,4e-05,0.00023,5e-05,2e-05,0.00015,0.00022,2,32.0
5075,0.00016,-3e-05,4e-05,0.00023,5e-05,2e-05,0.00015,0.00022,2,32.0
5076,0.00016,-3e-05,4e-05,0.00023,5e-05,2e-05,0.00015,0.00022,2,32.0
5077,0.00016,-3e-05,4e-05,0.00023,5e-05,2e-05,0.00015,0.00022,2,32.0
5078,0.00016,-3e-05,4e-05,0.00023,5e-05,2e-05,0.00015,0.00022,2,32.0
5079,0.00016,-3e-05,4e-05,0.00023,5e-05,2e-05,0.00015,0.00022,2,32.0
5080,0.00016,-3e-05,4e-05,0.00023,5e-05,2e-05,0.00015,0.00022,2,32.0
5081,0.00016,-3e-05,4e-05,0.00023,5e-05,2e-05,0.00015,0.00022,2,32.0
5082,0.00016,-3e-05,4e-05,0.00023,5e-05,2e-05,0.00015,0.00022,2,32.0
5083,0.00016,-3e-05,4e-05,0.00023,5e-05,2e-05,0.00015,0.00022,2,32.0
5084,0.00016,-3e-05,4e-05,0.00023,5e-05,2e-05,0.00015,0.00022,2,32.0
5085,0.00016,-3e-05,4e-05,0.00023,5e-05,2e-05,0.00015,0.00022,2,32.0
5086,0.00016,-3e-05,4e-05,0.00023,5e-05,2e-05,0.00015,0.00022,2,32.0
5088,0.00016,-3e-05,4e-05,0.00023,5e-05,2e-05,0.00015,0.00022,2,32.0
5089,0.00016,-3e-05,4e-05,0.00023,5e-05,2e-05,0.00015,0.00022,2,32.0
5090,0.00016,-3e-05,4e-05,0.00023,5e-05,2e-05,0.00015,0.00022,2,32.0
5091,0.00016,-3e-05,4e-05,0.00023,5e-05,2e-05,0.00015,0.00022,2,32.0
5092,0.00016,-3e-05,4e-05,0.00023,5e-05,2e-05,0.00015,0.00022,2,32.0
5093,0.00016,-3e-05,4e-05,0.00023,5e-05,2e-05,0.00015,0.00022,2,32.0
5094,0.00012,6e-05,1e-05,4e-05,7e-05,7e-05,-1e-05,6e-05,2,32.0
5095,-7e-05,-8e-05,-8e-05,-7e-05,-0.0001,2e-05,-4e-05,-2e-05,2,32.0
5096,1e-05,-2e-05,1e-05,-1e-05,-9e-05,-0.0001,0.00014,-1e-05,2,32.0
5097,1e-05,-2e-05,1e-05,-1e-05,-9e-05,-0.0001,0.00014,-1e-05,2,32.0
5098,1e-05,-2e-05,1e-05,-1e-05,-9e-05,-0.0001,0.00014,-1e-05,2,32.0
5099,1e-05,-2e-05,1e-05,-1e-05,-9e-05,-0.0001,0.00014,-1e-05,2,32.0
5100,1e-05,-2e-05,1e-05,-1e-05,-9e-05,-0.0001,0.00014,-1e-05,2,32.0
5101,1e-05,-2e-05,1e-05,-1e-05,-9e-05,-0.0001,0.00014,-1e-05,2,32.0
5102,1e-05,-2e-05,1e-05,-1e-05,-9e-05,-0.0001,0.00014,-1e-05,2,32.0
5103,1e-05,-2e-05,1e-05,-1e-05,-9e-05,-0.0001,0.00014,-1e-05,2,32.0
5104,1e-05,-2e-05,1e-05,-1e-05,-9e-05,-0.0001,0.00014,-1e-05,2,32.0
5105,1e-05,-2e-05,1e-05,-1e-05,-9e-05,-0.0001,0.00014,-1e-05,2,32.0
5106,1e-05,-2e-05,1e-05,-1e-05,-9e-05,-0.0001,0.00014,-1e-05,2,32.0
5107,0.00022,9e-05,-3e-05,-0.00011,0.0,-0.00012,-0.00022,-2e-05,2,32.0
5108,0.00022,9e-05,-3e-05,-0.00011,0.0,-0.00012,-0.00022,-2e-05,2,32.0
5109,0.00022,9e-05,-3e-05,-0.00011,0.0,-0.00012,-0.00022,-2e-05,2,32.0
5110,0.00022,9e-05,-3e-05,-0.00011,0.0,-0.00012,-0.00022,-2e-05,2,32.0
5111,0.00022,9e-05,-3e-05,-0.00011,0.0,-0.00012,-0.00022,-2e-05,2,32.0
5112,0.00022,9e-05,-3e-05,-0.00011,0.0,-0.00012,-0.00022,-2e-05,2,32.0
5113,0.00022,9e-05,-3e-05,-0.00011,0.0,-0.00012,-0.00022,-2e-05,2,32.0
5114,-3e-05,-4e-05,-0.00018,-0.0002,-0.00013,-1e-05,-9e-05,0.00012,2,32.0
5115,-3e-05,-4e-05,-0.00018,-0.0002,-0.00013,-1e-05,-9e-05,0.00012,2,32.0
5116,-3e-05,-4e-05,-0.00018,-0.0002,-0.00013,-1e-05,-9e-05,0.00012,2,32.0
5117,-3e-05,-4e-05,-0.00018,-0.0002,-0.00013,-1e-05,-9e-05,0.00012,2,32.0
5118,-3e-05,-4e-05,-0.00018,-0.0002,-0.00013,-1e-05,-9e-05,0.00012,2,32.0
5119,-3e-05,-4e-05,-0.00018,-0.0002,-0.00013,-1e-05,-9e-05,0.00012,2,32.0
5120,-3e-05,-4e-05,-0.00018,-0.0002,-0.00013,-1e-05,-9e-05,0.00012,2,32.0
5121,-3e-05,-4e-05,-0.00018,-0.0002,-0.00013,-1e-05,-9e-05,0.00012,2,32.0
5122,-3e-05,-4e-05,-0.00018,-0.0002,-0.00013,-1e-05,-9e-05,0.00012,2,32.0
5123,-3e-05,-4e-05,-0.00018,-0.0002,-0.00013,-1e-05,-9e-05,0.00012,2,32.0
5124,-3e-05,-4e-05,-0.00018,-0.0002,-0.00013,-1e-05,-9e-05,0.00012,2,32.0
5125,-3e-05,-4e-05,-0.00018,-0.0002,-0.00013,-1e-05,-9e-05,0.00012,2,32.0
5126,-3e-05,-4e-05,-0.00018,-0.0002,-0.00013,-1e-05,-9e-05,0.00012,2,32.0
5127,-3e-05,-4e-05,-0.00018,-0.0002,-0.00013,-1e-05,-9e-05,0.00012,2,32.0
5128,-3e-05,-4e-05,-0.00018,-0.0002,-0.00013,-1e-05,-9e-05,0.00012,2,32.0
5129,-3e-05,-4e-05,-0.00018,-0.0002,-0.00013,-1e-05,-9e-05,0.00012,2,32.0
5130,0.0001,0.0,2e-05,0.0,-8e-05,-8e-05,0.0,0.00016,2,32.0
5131,0.00061,5e-05,-1e-05,0.00014,-1e-05,-8e-05,0.0,0.00034,2,32.0
5132,-0.00045,-0.00012,3e-05,7e-05,-0.00014,5e-05,3e-05,-0.00013,2,32.0
5133,-0.00045,-0.00012,3e-05,7e-05,-0.00014,5e-05,3e-05,-0.00013,2,32.0
5134,-0.00045,-0.00012,3e-05,7e-05,-0.00014,5e-05,3e-05,-0.00013,2,32.0
5135,-0.00045,-0.00012,3e-05,7e-05,-0.00014,5e-05,3e-05,-0.00013,2,32.0
5136,-0.00045,-0.00012,3e-05,7e-05,-0.00014,5e-05,3e-05,-0.00013,2,32.0
5138,-0.00045,-0.00012,3e-05,7e-05,-0.00014,5e-05,3e-05,-0.00013,2,32.0
5139,-0.00045,-0.00012,3e-05,7e-05,-0.00014,5e-05,3e-05,-0.00013,2,32.0
5140,-0.00045,-0.00012,3e-05,7e-05,-0.00014,5e-05,3e-05,-0.00013,2,32.0
5141,-0.00045,-0.00012,3e-05,7e-05,-0.00014,5e-05,3e-05,-0.00013,2,32.0
5142,-0.00045,-0.00012,3e-05,7e-05,-0.00014,5e-05,3e-05,-0.00013,2,32.0
5143,-0.00045,-0.00012,3e-05,7e-05,-0.00014,5e-05,3e-05,-0.00013,2,32.0
5144,-0.00045,-0.00012,3e-05,7e-05,-0.00014,5e-05,3e-05,-0.00013,2,32.0
5145,-0.00045,-0.00012,3e-05,7e-05,-0.00014,5e-05,3e-05,-0.00013,2,32.0
5146,-0.00045,-0.00012,3e-05,7e-05,-0.00014,5e-05,3e-05,-0.00013,2,32.0
5147,-0.00045,-0.00012,3e-05,7e-05,-0.00014,5e-05,3e-05,-0.00013,2,32.0
5148,-0.00045,-0.00012,3e-05,7e-05,-0.00014,5e-05,3e-05,-0.00013,2,32.0
5149,-0.00045,-0.00012,3e-05,7e-05,-0.00014,5e-05,3e-05,-0.00013,2,32.0
5150,-0.00045,-0.00012,3e-05,7e-05,-0.00014,5e-05,3e-05,-0.00013,2,32.0
5151,-0.00045,-0.00012,3e-05,7e-05,-0.00014,5e-05,3e-05,-0.00013,2,32.0
5152,-0.00045,-0.00012,3e-05,7e-05,-0.00014,5e-05,3e-05,-0.00013,2,32.0
5153,0.0,0.0,1e-05,5e-05,5e-05,-6e-05,-0.00015,0.00014,2,32.0
5154,0.0,0.0,1e-05,5e-05,5e-05,-6e-05,-0.00015,0.00014,2,32.0
5155,-0.00041,-0.0001,-1e-05,-1e-05,-8e-05,-5e-05,-2e-05,-0.00028,2,32.0
5156,-0.00041,-0.0001,-1e-05,-1e-05,-8e-05,-5e-05,-2e-05,-0.00028,2,32.0
5157,-0.00041,-0.0001,-1e-05,-1e-05,-8e-05,-5e-05,-2e-05,-0.00028,2,32.0
5158,-0.00041,-0.0001,-1e-05,-1e-05,-8e-05,-5e-05,-2e-05,-0.00028,2,32.0
5159,-0.00041,-0.0001,-1e-05,-1e-05,-8e-05,-5e-05,-2e-05,-0.00028,2,32.0
5160,-0.00041,-0.0001,-1e-05,-1e-05,-8e-05,-5e-05,-2e-05,-0.00028,2,32.0
5161,-0.00041,-0.0001,-1e-05,-1e-05,-8e-05,-5e-05,-2e-05,-0.00028,2,32.0
5162,-0.00041,-0.0001,-1e-05,-1e-05,-8e-05,-5e-05,-2e-05,-0.00028,2,32.0
5163,-0.00041,-0.0001,-1e-05,-1e-05,-8e-05,-5e-05,-2e-05,-0.00028,2,32.0
5164,-0.00041,-0.0001,-1e-05,-1e-05,-8e-05,-5e-05,-2e-05,-0.00028,2,32.0
5165,-0.00041,-0.0001,-1e-05,-1e-05,-8e-05,-5e-05,-2e-05,-0.00028,2,32.0
5166,-0.00041,-0.0001,-1e-05,-1e-05,-8e-05,-5e-05,-2e-05,-0.00028,2,32.0
5167,-0.00061,-1e-05,4e-05,7e-05,-2e-05,0.0,-8e-05,-2e-05,2,32.0
5168,-0.00018,-0.0001,-0.00016,-0.00012,7e-05,0.00013,0.00013,0.00014,2,32.0
5169,-0.00018,-0.0001,-0.00016,-0.00012,7e-05,0.00013,0.00013,0.00014,2,32.0
5170,-0.00018,-0.0001,-0.00016,-0.00012,7e-05,0.00013,0.00013,0.00014,2,32.0
5171,-0.00018,-0.0001,-0.00016,-0.00012,7e-05,0.00013,0.00013,0.00014,2,32.0
5172,-0.00018,-0.0001,-0.00016,-0.00012,7e-05,0.00013,0.00013,0.00014,2,32.0
5173,-0.00018,-0.0001,-0.00016,-0.00012,7e-05,0.00013,0.00013,0.00014,2,32.0
5174,0.00045,9e-05,0.00015,-2e-05,4e-05,-3e-05,-8e-05,0.0,2,32.0
5176,0.00045,9e-05,0.00015,-2e-05,4e-05,-3e-05,-8e-05,0.0,2,32.0
5177,0.00045,9e-05,0.00015,-2e-05,4e-05,-3e-05,-8e-05,0.0,2,32.0
5178,0.00045,9e-05,0.00015,-2e-05,4e-05,-3e-05,-8e-05,0.0,2,32.0
5179,0.00045,9e-05,0.00015,-2e-05,4e-05,-3e-05,-8e-05,0.0,2,32.0
5180,0.00045,9e-05,0.00015,-2e-05,4e-05,-3e-05,-8e-05,0.0,2,32.0
5181,0.00045,9e-05,0.00015,-2e-05,4e-05,-3e-05,-8e-05,0.0,2,32.0
5182,0.00045,9e-05,0.00015,-2e-05,4e-05,-3e-05,-8e-05,0.0,2,32.0
5183,0.00045,9e-05,0.00015,-2e-05,4e-05,-3e-05,-8e-05,0.0,2,32.0
5184,0.00045,9e-05,0.00015,-2e-05,4e-05,-3e-05,-8e-05,0.0,2,32.0
5185,0.00045,9e-05,0.00015,-2e-05,4e-05,-3e-05,-8e-05,0.0,2,32.0
5186,0.00045,9e-05,0.00015,-2e-05,4e-05,-3e-05,-8e-05,0.0,2,32.0
5188,0.00045,9e-05,0.00015,-2e-05,4e-05,-3e-05,-8e-05,0.0,2,32.0
5189,0.00045,9e-05,0.00015,-2e-05,4e-05,-3e-05,-8e-05,0.0,2,32.0
5190,0.00045,9e-05,0.00015,-2e-05,4e-05,-3e-05,-8e-05,0.0,2,32.0
5191,-0.00023,-4e-05,1e-05,9e-05,-0.00013,-3e-05,5e-05,-5e-05,2,32.0
5192,-0.00015,0.0,0.00015,0.00039,0.00012,1e-05,-2e-05,9e-05,2,32.0
5193,-0.00015,0.0,0.00015,0.00039,0.00012,1e-05,-2e-05,9e-05,2,32.0
5194,-0.00015,0.0,0.00015,0.00039,0.00012,1e-05,-2e-05,9e-05,2,32.0
5195,-0.00015,0.0,0.00015,0.00039,0.00012,1e-05,-2e-05,9e-05,2,32.0
5196,-0.00015,0.0,0.00015,0.00039,0.00012,1e-05,-2e-05,9e-05,2,32.0
5197,-0.00015,0.0,0.00015,0.00039,0.00012,1e-05,-2e-05,9e-05,2,32.0
5198,-0.00015,0.0,0.00015,0.00039,0.00012,1e-05,-2e-05,9e-05,2,32.0
5199,-0.00015,0.0,0.00015,0.00039,0.00012,1e-05,-2e-05,9e-05,2,32.0
5200,-0.00015,0.0,0.00015,0.00039,0.00012,1e-05,-2e-05,9e-05,2,32.0
5201,-0.00015,0.0,0.00015,0.00039,0.00012,1e-05,-2e-05,9e-05,2,32.0
5202,-0.00015,0.0,0.00015,0.00039,0.00012,1e-05,-2e-05,9e-05,2,32.0
5203,-0.00015,0.0,0.00015,0.00039,0.00012,1e-05,-2e-05,9e-05,2,32.0
5204,-0.00015,0.0,0.00015,0.00039,0.00012,1e-05,-2e-05,9e-05,2,32.0
5205,-0.00015,0.0,0.00015,0.00039,0.00012,1e-05,-2e-05,9e-05,2,32.0
5206,-0.00015,0.0,0.00015,0.00039,0.00012,1e-05,-2e-05,9e-05,2,32.0
5207,-0.00015,0.0,0.00015,0.00039,0.00012,1e-05,-2e-05,9e-05,2,32.0
5208,-0.00015,0.0,0.00015,0.00039,0.00012,1e-05,-2e-05,9e-05,2,32.0
5209,-0.00015,0.0,0.00015,0.00039,0.00012,1e-05,-2e-05,9e-05,2,32.0
5210,-0.00015,0.0,0.00015,0.00039,0.00012,1e-05,-2e-05,9e-05,2,32.0
5211,-0.00015,0.0,0.00015,0.00039,0.00012,1e-05,-2e-05,9e-05,2,32.0
5212,-0.00015,0.0,0.00015,0.00039,0.00012,1e-05,-2e-05,9e-05,2,32.0
5213,-0.00018,0.0,0.0,-5e-05,0.00011,0.00011,0.00019,-0.00016,2,32.0
5214,-0.00018,0.0,0.0,-5e-05,0.00011,0.00011,0.00019,-0.00016,2,32.0
5215,-2e-05,1e-05,0.00011,0.0001,-0.00021,-6e-05,0.0001,0.00026,2,32.0
5216,-2e-05,1e-05,0.00011,0.0001,-0.00021,-6e-05,0.0001,0.00026,2,32.0
5217,-2e-05,1e-05,0.00011,0.0001,-0.00021,-6e-05,0.0001,0.00026,2,32.0
5218,-2e-05,1e-05,0.00011,0.0001,-0.00021,-6e-05,0.0001,0.00026,2,32.0
5219,-2e-05,1e-05,0.00011,0.0001,-0.00021,-6e-05,0.0001,0.00026,2,32.0
5220,-2e-05,1e-05,0.00011,0.0001,-0.00021,-6e-05,0.0001,0.00026,2,32.0
5221,-2e-05,1e-05,0.00011,0.0001,-0.00021,-6e-05,0.0001,0.00026,2,32.0
5222,-2e-05,1e-05,0.00011,0.0001,-0.00021,-6e-05,0.0001,0.00026,2,32.0
5223,-2e-05,1e-05,0.00011,0.0001,-0.00021,-6e-05,0.0001,0.00026,2,32.0
5224,-2e-05,1e-05,0.00011,0.0001,-0.00021,-6e-05,0.0001,0.00026,2,32.0
5225,-2e-05,1e-05,0.00011,0.0001,-0.00021,-6e-05,0.0001,0.00026,2,32.0
5226,-2e-05,1e-05,0.00011,0.0001,-0.00021,-6e-05,0.0001,0.00026,2,32.0
5227,0.00053,9e-05,4e-05,8e-05,2e-05,3e-05,0.0,0.00019,2,32.0
5228,0.00053,9e-05,4e-05,8e-05,2e-05,3e-05,0.0,0.00019,2,32.0
5229,0.00053,9e-05,4e-05,8e-05,2e-05,3e-05,0.0,0.00019,2,32.0
5230,0.00053,9e-05,4e-05,8e-05,2e-05,3e-05,0.0,0.00019,2,32.0
5231,0.00053,9e-05,4e-05,8e-05,2e-05,3e-05,0.0,0.00019,2,32.0
5232,0.00053,9e-05,4e-05,8e-05,2e-05,3e-05,0.0,0.00019,2,32.0
5233,0.00053,9e-05,4e-05,8e-05,2e-05,3e-05,0.0,0.00019,2,32.0
5234,-0.00012,-8e-05,-0.00019,-4e-05,-2e-05,-9e-05,-0.00013,-0.00014,2,32.0
5235,-0.00012,-8e-05,-0.00019,-4e-05,-2e-05,-9e-05,-0.00013,-0.00014,2,32.0
5236,-0.00012,-8e-05,-0.00019,-4e-05,-2e-05,-9e-05,-0.00013,-0.00014,2,32.0
5239,-0.00012,-8e-05,-0.00019,-4e-05,-2e-05,-9e-05,-0.00013,-0.00014,2,32.0
5240,-0.00012,-8e-05,-0.00019,-4e-05,-2e-05,-9e-05,-0.00013,-0.00014,2,32.0
5241,-0.00012,-8e-05,-0.00019,-4e-05,-2e-05,-9e-05,-0.00013,-0.00014,2,32.0
5242,-0.00012,-8e-05,-0.00019,-4e-05,-2e-05,-9e-05,-0.00013,-0.00014,2,32.0
5243,-0.00012,-8e-05,-0.00019,-4e-05,-2e-05,-9e-05,-0.00013,-0.00014,2,32.0
5244,-0.00012,-8e-05,-0.00019,-4e-05,-2e-05,-9e-05,-0.00013,-0.00014,2,32.0
5245,-0.00012,-8e-05,-0.00019,-4e-05,-2e-05,-9e-05,-0.00013,-0.00014,2,32.0
5246,-0.00012,-8e-05,-0.00019,-4e-05,-2e-05,-9e-05,-0.00013,-0.00014,2,32.0
5247,-0.00012,-8e-05,-0.00019,-4e-05,-2e-05,-9e-05,-0.00013,-0.00014,2,32.0
5248,-0.00012,-8e-05,-0.00019,-4e-05,-2e-05,-9e-05,-0.00013,-0.00014,2,32.0
5249,-0.00012,-8e-05,-0.00019,-4e-05,-2e-05,-9e-05,-0.00013,-0.00014,2,32.0
5250,-0.00061,-5e-05,-2e-05,-6e-05,-1e-05,4e-05,8e-05,0.0001,2,32.0
5251,-0.00061,-5e-05,-2e-05,-6e-05,-1e-05,4e-05,8e-05,0.0001,2,32.0
5252,-0.00061,-5e-05,-2e-05,-6e-05,-1e-05,4e-05,8e-05,0.0001,2,32.0
5253,-0.00061,-5e-05,-2e-05,-6e-05,-1e-05,4e-05,8e-05,0.0001,2,32.0
5254,-0.00061,-5e-05,-2e-05,-6e-05,-1e-05,4e-05,8e-05,0.0001,2,32.0
5255,-0.00061,-5e-05,-2e-05,-6e-05,-1e-05,4e-05,8e-05,0.0001,2,32.0
5256,-0.00061,-5e-05,-2e-05,-6e-05,-1e-05,4e-05,8e-05,0.0001,2,32.0
5257,4e-05,-6e-05,-1e-05,1e-05,0.00023,-2e-05,2e-05,0.00014,2,32.0
5258,4e-05,-6e-05,-1e-05,1e-05,0.00023,-2e-05,2e-05,0.00014,2,32.0
5259,4e-05,-6e-05,-1e-05,1e-05,0.00023,-2e-05,2e-05,0.00014,2,32.0
5260,4e-05,-6e-05,-1e-05,1e-05,0.00023,-2e-05,2e-05,0.00014,2,32.0
5261,4e-05,-6e-05,-1e-05,1e-05,0.00023,-2e-05,2e-05,0.00014,2,32.0
5262,4e-05,-6e-05,-1e-05,1e-05,0.00023,-2e-05,2e-05,0.00014,2,32.0
5263,4e-05,-6e-05,-1e-05,1e-05,0.00023,-2e-05,2e-05,0.00014,2,32.0
5264,4e-05,-6e-05,-1e-05,1e-05,0.00023,-2e-05,2e-05,0.00014,2,32.0
5265,4e-05,-6e-05,-1e-05,1e-05,0.00023,-2e-05,2e-05,0.00014,2,32.0
5266,4e-05,-6e-05,-1e-05,1e-05,0.00023,-2e-05,2e-05,0.00014,2,32.0
5267,4e-05,-6e-05,-1e-05,1e-05,0.00023,-2e-05,2e-05,0.00014,2,32.0
5268,4e-05,-6e-05,-1e-05,1e-05,0.00023,-2e-05,2e-05,0.00014,2,32.0
5269,4e-05,-6e-05,-1e-05,1e-05,0.00023,-2e-05,2e-05,0.00014,2,32.0
5270,4e-05,-6e-05,-1e-05,1e-05,0.00023,-2e-05,2e-05,0.00014,2,32.0
5271,4e-05,-6e-05,-1e-05,1e-05,0.00023,-2e-05,2e-05,0.00014,2,32.0
5272,4e-05,-6e-05,-1e-05,1e-05,0.00023,-2e-05,2e-05,0.00014,2,32.0
5273,4e-05,-6e-05,-1e-05,1e-05,0.00023,-2e-05,2e-05,0.00014,2,32.0
5274,0.00038,2e-05,7e-05,0.00019,8e-05,0.0,1e-05,-0.0001,2,32.0
5275,0.00038,2e-05,7e-05,0.00019,8e-05,0.0,1e-05,-0.0001,2,32.0
5276,0.00038,2e-05,7e-05,0.00019,8e-05,0.0,1e-05,-0.0001,2,32.0
5277,0.00038,2e-05,7e-05,0.00019,8e-05,0.0,1e-05,-0.0001,2,32.0
5278,0.00038,2e-05,7e-05,0.00019,8e-05,0.0,1e-05,-0.0001,2,32.0
5279,-0.00033,-4e-05,-0.00015,-0.00053,-9e-05,5e-05,7e-05,-0.00024,2,32.0
5280,-0.00033,-4e-05,-0.00015,-0.00053,-9e-05,5e-05,7e-05,-0.00024,2,32.0
5281,-0.00033,-4e-05,-0.00015,-0.00053,-9e-05,5e-05,7e-05,-0.00024,2,32.0
5282,-0.00033,-4e-05,-0.00015,-0.00053,-9e-05,5e-05,7e-05,-0.00024,2,32.0
5283,-0.00033,-4e-05,-0.00015,-0.00053,-9e-05,5e-05,7e-05,-0.00024,2,32.0
5284,-0.00033,-4e-05,-0.00015,-0.00053,-9e-05,5e-05,7e-05,-0.00024,2,32.0
5285,-0.00033,-4e-05,-0.00015,-0.00053,-9e-05,5e-05,7e-05,-0.00024,2,32.0
5286,-0.00033,-4e-05,-0.00015,-0.00053,-9e-05,5e-05,7e-05,-0.00024,2,32.0
5290,-0.00052,-8e-05,0.0,9e-05,3e-05,-0.00016,-0.00022,-0.0002,2,32.0
5291,-0.00052,-8e-05,0.0,9e-05,3e-05,-0.00016,-0.00022,-0.0002,2,32.0
5292,-0.00052,-8e-05,0.0,9e-05,3e-05,-0.00016,-0.00022,-0.0002,2,32.0
5293,-0.00052,-8e-05,0.0,9e-05,3e-05,-0.00016,-0.00022,-0.0002,2,32.0
5294,0.00018,4e-05,0.00013,0.00015,0.00012,-5e-05,-4e-05,6e-05,2,32.0
5296,0.00018,4e-05,0.00013,0.00015,0.00012,-5e-05,-4e-05,6e-05,2,32.0
5297,0.00018,4e-05,0.00013,0.00015,0.00012,-5e-05,-4e-05,6e-05,2,32.0
5298,0.00018,4e-05,0.00013,0.00015,0.00012,-5e-05,-4e-05,6e-05,2,32.0
5299,0.00018,4e-05,0.00013,0.00015,0.00012,-5e-05,-4e-05,6e-05,2,32.0
5300,0.00018,4e-05,0.00013,0.00015,0.00012,-5e-05,-4e-05,6e-05,2,32.0
5301,0.00018,4e-05,0.00013,0.00015,0.00012,-5e-05,-4e-05,6e-05,2,32.0
5302,0.00018,4e-05,0.00013,0.00015,0.00012,-5e-05,-4e-05,6e-05,2,32.0
5303,0.00018,4e-05,0.00013,0.00015,0.00012,-5e-05,-4e-05,6e-05,2,32.0
5304,0.00018,4e-05,0.00013,0.00015,0.00012,-5e-05,-4e-05,6e-05,2,32.0
5305,0.00018,4e-05,0.00013,0.00015,0.00012,-5e-05,-4e-05,6e-05,2,32.0
5306,0.00018,4e-05,0.00013,0.00015,0.00012,-5e-05,-4e-05,6e-05,2,32.0
5307,0.00018,4e-05,0.00013,0.00015,0.00012,-5e-05,-4e-05,6e-05,2,32.0
5308,0.00018,4e-05,0.00013,0.00015,0.00012,-5e-05,-4e-05,6e-05,2,32.0
5309,0.00018,4e-05,0.00013,0.00015,0.00012,-5e-05,-4e-05,6e-05,2,32.0
5310,0.00018,4e-05,0.00013,0.00015,0.00012,-5e-05,-4e-05,6e-05,2,32.0
5311,0.00018,4e-05,0.00013,0.00015,0.00012,-5e-05,-4e-05,6e-05,2,32.0
5312,0.00018,4e-05,0.00013,0.00015,0.00012,-5e-05,-4e-05,6e-05,2,32.0
5313,0.00018,4e-05,0.00013,0.00015,0.00012,-5e-05,-4e-05,6e-05,2,32.0
5314,0.00018,4e-05,0.00013,0.00015,0.00012,-5e-05,-4e-05,6e-05,2,32.0
5315,0.00018,4e-05,0.00013,0.00015,0.00012,-5e-05,-4e-05,6e-05,2,32.0
5316,0.00018,4e-05,0.00013,0.00015,0.00012,-5e-05,-4e-05,6e-05,2,32.0
5317,0.00018,4e-05,0.00013,0.00015,0.00012,-5e-05,-4e-05,6e-05,2,32.0
5318,0.00018,4e-05,0.00013,0.00015,0.00012,-5e-05,-4e-05,6e-05,2,32.0
5319,-0.00024,-8e-05,-1e-05,-8e-05,-0.00014,-5e-05,-0.00015,-0.00015,2,32.0
5320,0.00014,-2e-05,-4e-05,1e-05,-0.00015,-6e-05,0.00011,0.00011,2,32.0
5321,0.00014,-2e-05,-4e-05,1e-05,-0.00015,-6e-05,0.00011,0.00011,2,32.0
5322,0.00014,-2e-05,-4e-05,1e-05,-0.00015,-6e-05,0.00011,0.00011,2,32.0
5323,0.00014,-2e-05,-4e-05,1e-05,-0.00015,-6e-05,0.00011,0.00011,2,32.0
5324,0.00014,-2e-05,-4e-05,1e-05,-0.00015,-6e-05,0.00011,0.00011,2,32.0
5325,0.00014,-2e-05,-4e-05,1e-05,-0.00015,-6e-05,0.00011,0.00011,2,32.0
5326,0.00014,-2e-05,-4e-05,1e-05,-0.00015,-6e-05,0.00011,0.00011,2,32.0
5327,0.00014,-2e-05,-4e-05,1e-05,-0.00015,-6e-05,0.00011,0.00011,2,32.0
5328,0.00014,-2e-05,-4e-05,1e-05,-0.00015,-6e-05,0.00011,0.00011,2,32.0
5329,0.00014,-2e-05,-4e-05,1e-05,-0.00015,-6e-05,0.00011,0.00011,2,32.0
5330,0.00014,-2e-05,-4e-05,1e-05,-0.00015,-6e-05,0.00011,0.00011,2,32.0
5331,0.00014,-2e-05,-4e-05,1e-05,-0.00015,-6e-05,0.00011,0.00011,2,32.0
5332,0.00014,-2e-05,-4e-05,1e-05,-0.00015,-6e-05,0.00011,0.00011,2,32.0
5333,-0.00084,-9e-05,-4e-05,-6e-05,-0.0002,-9e-05,-0.00015,-0.00023,2,32.0
5334,-1e-05,-1e-05,5e-05,2e-05,-2e-05,-8e-05,3e-05,-0.00018,2,32.0
5335,-0.00022,-3e-05,-6e-05,-1e-05,-1e-05,6e-05,-6e-05,-4e-05,2,32.0
5336,-0.00022,-3e-05,-6e-05,-1e-05,-1e-05,6e-05,-6e-05,-4e-05,2,32.0
5339,-0.00022,-3e-05,-6e-05,-1e-05,-1e-05,6e-05,-6e-05,-4e-05,2,32.0
5340,-0.00022,-3e-05,-6e-05,-1e-05,-1e-05,6e-05,-6e-05,-4e-05,2,32.0
5341,-0.00022,-3e-05,-6e-05,-1e-05,-1e-05,6e-05,-6e-05,-4e-05,2,32.0
5342,-0.00022,-3e-05,-6e-05,-1e-05,-1e-05,6e-05,-6e-05,-4e-05,2,32.0
